# OpenSignals Text File Format
# {"00:07:80:3B:46:38": {"sensor": ["ECG"], "device name": "00:07:80:3B:46:38", "column": ["nSeq", "DI", "X"], "sync interval": 2, "time": "10:15:27.846", "comments": "", "device connection": "BTH00:07:80:3B:46:38", "channels": [1], "date": "2016-6-23", "mode": 0, "digital IO": [0, 1], "firmware version": 772, "device": "biosignalsplux", "position": 0, "sampling rate": 100, "label": ["X"], "resolution": [16], "special": [{}]}}
# EndOfHeader
0	0	33334	
1	0	33260	
2	0	33061	
3	0	33300	
4	0	33309	
5	0	33478	
6	0	33360	
7	0	33084	
8	0	33414	
9	0	33420	
10	0	33473	
11	0	33351	
12	0	33264	
13	0	33272	
14	0	33261	
15	0	33272	
16	0	32964	
17	0	32976	
18	0	32996	
19	0	32848	
20	0	32812	
21	0	32806	
22	0	32800	
23	0	32816	
24	0	32756	
25	0	32906	
26	0	32902	
27	0	32971	
28	0	32858	
29	0	32908	
30	0	32814	
31	0	32760	
32	0	32790	
33	0	32804	
34	0	32704	
35	0	32832	
36	0	32736	
37	0	32934	
38	0	32813	
39	0	32680	
40	0	32708	
41	0	32771	
42	0	32872	
43	0	32612	
44	0	32967	
45	0	32690	
46	0	32640	
47	0	32592	
48	0	32804	
49	0	32617	
50	0	32761	
51	0	32773	
52	0	32608	
53	0	32542	
54	0	32800	
55	0	32742	
56	0	32881	
57	0	32609	
58	0	32580	
59	0	32602	
60	0	32628	
61	0	32516	
62	0	32496	
63	0	32612	
64	0	32428	
65	0	32652	
66	0	32520	
67	0	32619	
68	0	32769	
69	0	32822	
70	0	32711	
71	0	33314	
72	0	33226	
73	0	31482	
74	0	30013	
75	0	30279	
76	0	31777	
77	0	32658	
78	0	32998	
79	0	33014	
80	0	33034	
81	0	33152	
82	0	33016	
83	0	33176	
84	0	33082	
85	0	33045	
86	0	32936	
87	0	32692	
88	0	32864	
89	0	33120	
90	0	33056	
91	0	32885	
92	0	32672	
93	0	33065	
94	0	33069	
95	0	32915	
96	0	33108	
97	0	33064	
98	0	33108	
99	0	33243	
100	0	33082	
101	0	32846	
102	0	33016	
103	0	32720	
104	0	32775	
105	0	32834	
106	0	32654	
107	0	32728	
108	0	32584	
109	0	32658	
110	0	32708	
111	0	32602	
112	0	32711	
113	0	32916	
114	0	32704	
115	0	32856	
116	0	32666	
117	0	32728	
118	0	32668	
119	0	32480	
120	0	32720	
121	0	32808	
122	0	32662	
123	0	32674	
124	0	32775	
125	0	32786	
126	0	32812	
127	0	32760	
128	0	32672	
129	0	32572	
130	0	32510	
131	0	32760	
132	0	32692	
133	0	32705	
134	0	32899	
135	0	32758	
136	0	32775	
137	0	32830	
138	0	32610	
139	0	32692	
140	0	32836	
141	0	32757	
142	0	32642	
143	0	32902	
144	0	32876	
145	0	32758	
146	0	32775	
147	0	32713	
148	0	32595	
149	0	32792	
150	0	32633	
151	0	32723	
152	0	32770	
153	0	32738	
154	0	32786	
155	0	32699	
156	0	32770	
157	0	32738	
158	0	32696	
159	0	33350	
160	0	33256	
161	0	31672	
162	0	29932	
163	0	30422	
164	0	31928	
165	0	32694	
166	0	32988	
167	0	32964	
168	0	33264	
169	0	33105	
170	0	33090	
171	0	33270	
172	0	33152	
173	0	33232	
174	0	33232	
175	0	33200	
176	0	33115	
177	0	33095	
178	0	33052	
179	0	33112	
180	0	33154	
181	0	33144	
182	0	33120	
183	0	33138	
184	0	33276	
185	0	33376	
186	0	33260	
187	0	33281	
188	0	33303	
189	0	33175	
190	0	33041	
191	0	33103	
192	0	32912	
193	0	33014	
194	0	32953	
195	0	32803	
196	0	32775	
197	0	32800	
198	0	32745	
199	0	32808	
200	0	32836	
201	0	33021	
202	0	32967	
203	0	32658	
204	0	32767	
205	0	32827	
206	0	32775	
207	0	32874	
208	0	32729	
209	0	32592	
210	0	32752	
211	0	32688	
212	0	32702	
213	0	32775	
214	0	32690	
215	0	32635	
216	0	32670	
217	0	32722	
218	0	32524	
219	0	32647	
220	0	32548	
221	0	32716	
222	0	32646	
223	0	32696	
224	0	32676	
225	0	32680	
226	0	32405	
227	0	32624	
228	0	32624	
229	0	32813	
230	0	32538	
231	0	32835	
232	0	32784	
233	0	32775	
234	0	32754	
235	0	32748	
236	0	32800	
237	0	32890	
238	0	32713	
239	0	32647	
240	0	32642	
241	0	32626	
242	0	32370	
243	0	32624	
244	0	32676	
245	0	32363	
246	0	32426	
247	0	32594	
248	0	32541	
249	0	32573	
250	0	32556	
251	0	33053	
252	0	33488	
253	0	32279	
254	0	30169	
255	0	30498	
256	0	31513	
257	0	32749	
258	0	33211	
259	0	33264	
260	0	33436	
261	0	33488	
262	0	33168	
263	0	33550	
264	0	33490	
265	0	33415	
266	0	33469	
267	0	33398	
268	0	33168	
269	0	33324	
270	0	33316	
271	0	33240	
272	0	33428	
273	0	33322	
274	0	33403	
275	0	33287	
276	0	33474	
277	0	33500	
278	0	33392	
279	0	33332	
280	0	33560	
281	0	33287	
282	0	33241	
283	0	32952	
284	0	32997	
285	0	32950	
286	0	32740	
287	0	32908	
288	0	32698	
289	0	32696	
290	0	32560	
291	0	32790	
292	0	32624	
293	0	32802	
294	0	32561	
295	0	32754	
296	0	32690	
297	0	32552	
298	0	32550	
299	0	32704	
300	0	32576	
301	0	32594	
302	0	32707	
303	0	32612	
304	0	32691	
305	0	32583	
306	0	32488	
307	0	32668	
308	0	32414	
309	0	32413	
310	0	32610	
311	0	32724	
312	0	32540	
313	0	32588	
314	0	32621	
315	0	32528	
316	0	32658	
317	0	32600	
318	0	32717	
319	0	32664	
320	0	32604	
321	0	32684	
322	0	32731	
323	0	32656	
324	0	32812	
325	0	32775	
326	0	32627	
327	0	32808	
328	0	32563	
329	0	32711	
330	0	32828	
331	0	32740	
332	0	32699	
333	0	32728	
334	0	32509	
335	0	32668	
336	0	32393	
337	0	32670	
338	0	32566	
339	0	32877	
340	0	32700	
341	0	32509	
342	0	32655	
343	0	32672	
344	0	32704	
345	0	32912	
346	0	33376	
347	0	32958	
348	0	31301	
349	0	31344	
350	0	31548	
351	0	32455	
352	0	32552	
353	0	32888	
354	0	32960	
355	0	32946	
356	0	33004	
357	0	32996	
358	0	33056	
359	0	32857	
360	0	33074	
361	0	32800	
362	0	32841	
363	0	33000	
364	0	33056	
365	0	32962	
366	0	32952	
367	0	33094	
368	0	33010	
369	0	33016	
370	0	33000	
371	0	33220	
372	0	33131	
373	0	33287	
374	0	33287	
375	0	33156	
376	0	33080	
377	0	33004	
378	0	33050	
379	0	32996	
380	0	32771	
381	0	33109	
382	0	32876	
383	0	32880	
384	0	32896	
385	0	32967	
386	0	32829	
387	0	32774	
388	0	32827	
389	0	32764	
390	0	32692	
391	0	32633	
392	0	32775	
393	0	32594	
394	0	32839	
395	0	32784	
396	0	32875	
397	0	32624	
398	0	32704	
399	0	32656	
400	0	32551	
401	0	32692	
402	0	32664	
403	0	32660	
404	0	32495	
405	0	32549	
406	0	32516	
407	0	32775	
408	0	32477	
409	0	32688	
410	0	32532	
411	0	32617	
412	0	32532	
413	0	32762	
414	0	32548	
415	0	32388	
416	0	32256	
417	0	32256	
418	0	32445	
419	0	32250	
420	0	32260	
421	0	32256	
422	0	32250	
423	0	32192	
424	0	32448	
425	0	32263	
426	0	32108	
427	0	32100	
428	0	32204	
429	0	32263	
430	0	32239	
431	0	31962	
432	0	32080	
433	0	32071	
434	0	31954	
435	0	32320	
436	0	32242	
437	0	32105	
438	0	32487	
439	0	32424	
440	0	32996	
441	0	32992	
442	0	31680	
443	0	30276	
444	0	30292	
445	0	31590	
446	0	32586	
447	0	32976	
448	0	33047	
449	0	32903	
450	0	33272	
451	0	33227	
452	0	32985	
453	0	33256	
454	0	32807	
455	0	32914	
456	0	33086	
457	0	33258	
458	0	33212	
459	0	32856	
460	0	33192	
461	0	32586	
462	0	33260	
463	0	33058	
464	0	33768	
465	0	33302	
466	0	33063	
467	0	33568	
468	0	32962	
469	0	33220	
470	0	33234	
471	0	32332	
472	0	33008	
473	0	33022	
474	0	33031	
475	0	32489	
476	0	32306	
477	0	32431	
478	0	31954	
479	0	31876	
480	0	31644	
481	0	31816	
482	0	31834	
483	0	32020	
484	0	31858	
485	0	32023	
486	0	31777	
487	0	31824	
488	0	32180	
489	0	32107	
490	0	31944	
491	0	32524	
492	0	32464	
493	0	32388	
494	0	32236	
495	0	32112	
496	0	32678	
497	0	32262	
498	0	33012	
499	0	32963	
500	0	32800	
501	0	32887	
502	0	32644	
503	0	32682	
504	0	33746	
505	0	33360	
506	0	33020	
507	0	32864	
508	0	33026	
509	0	33128	
510	0	32953	
511	0	32684	
512	0	33072	
513	0	32856	
514	0	33016	
515	0	32952	
516	0	33177	
517	0	33334	
518	0	33213	
519	0	33136	
520	0	33488	
521	0	33479	
522	0	33336	
523	0	33217	
524	0	33458	
525	0	33596	
526	0	33376	
527	0	33265	
528	0	33689	
529	0	33799	
530	0	33752	
531	0	33856	
532	0	33664	
533	0	33794	
534	0	33844	
535	0	34329	
536	0	34325	
537	0	33266	
538	0	31239	
539	0	31010	
540	0	32466	
541	0	33669	
542	0	33972	
543	0	34075	
544	0	34277	
545	0	34107	
546	0	33659	
547	0	33946	
548	0	34041	
549	0	33970	
550	0	33788	
551	0	34012	
552	0	33902	
553	0	33696	
554	0	33146	
555	0	33764	
556	0	33592	
557	0	33496	
558	0	33796	
559	0	33548	
560	0	33568	
561	0	33837	
562	0	33452	
563	0	33725	
564	0	33569	
565	0	33593	
566	0	33548	
567	0	33371	
568	0	33194	
569	0	33024	
570	0	33006	
571	0	33107	
572	0	33056	
573	0	33200	
574	0	33159	
575	0	32925	
576	0	32760	
577	0	33188	
578	0	32914	
579	0	33139	
580	0	32946	
581	0	33159	
582	0	32942	
583	0	32916	
584	0	32819	
585	0	33015	
586	0	33076	
587	0	33021	
588	0	33016	
589	0	32999	
590	0	32988	
591	0	33074	
592	0	32916	
593	0	32600	
594	0	32866	
595	0	32903	
596	0	32786	
597	0	32820	
598	0	32788	
599	0	32850	
600	0	32802	
601	0	32823	
602	0	32775	
603	0	32845	
604	0	32784	
605	0	32751	
606	0	32807	
607	0	32904	
608	0	32854	
609	0	32844	
610	0	32658	
611	0	32690	
612	0	32726	
613	0	32775	
614	0	32736	
615	0	32834	
616	0	32900	
617	0	32764	
618	0	32976	
619	0	32775	
620	0	32791	
621	0	32860	
622	0	32981	
623	0	32881	
624	0	33068	
625	0	33110	
626	0	33104	
627	0	33212	
628	0	32985	
629	0	33218	
630	0	33214	
631	0	33496	
632	0	33792	
633	0	34032	
634	0	32988	
635	0	31200	
636	0	31230	
637	0	32229	
638	0	33000	
639	0	33592	
640	0	33581	
641	0	33863	
642	0	33954	
643	0	33991	
644	0	33920	
645	0	33924	
646	0	33671	
647	0	33768	
648	0	33552	
649	0	33452	
650	0	33408	
651	0	33310	
652	0	33498	
653	0	33418	
654	0	33186	
655	0	33248	
656	0	33104	
657	0	33159	
658	0	33108	
659	0	33058	
660	0	32938	
661	0	33008	
662	0	32765	
663	0	32850	
664	0	32313	
665	0	31943	
666	0	31811	
667	0	31928	
668	0	31306	
669	0	31012	
670	0	30682	
671	0	30876	
672	0	30292	
673	0	29972	
674	0	29634	
675	0	29050	
676	0	28786	
677	0	28796	
678	0	28626	
679	0	27978	
680	0	27928	
681	0	27680	
682	0	27220	
683	0	27224	
684	0	26524	
685	0	26620	
686	0	26646	
687	0	26290	
688	0	25893	
689	0	25800	
690	0	25862	
691	0	24846	
692	0	25154	
693	0	25478	
694	0	25129	
695	0	24430	
696	0	25122	
697	0	24365	
698	0	24798	
699	0	25166	
700	0	24583	
701	0	24576	
702	0	24885	
703	0	25780	
704	0	25752	
705	0	26605	
706	0	27655	
707	0	27005	
708	0	25176	
709	0	24824	
710	0	26648	
711	0	28866	
712	0	24455	
713	0	20164	
714	0	27580	
715	0	29780	
716	0	37032	
717	0	36678	
718	0	37940	
719	0	38390	
720	0	47736	
721	0	44076	
722	0	47216	
723	0	44736	
724	0	38396	
725	0	43807	
726	0	42080	
727	0	42276	
728	0	46548	
729	0	39736	
730	0	48279	
731	0	39542	
732	0	35454	
733	0	33735	
734	0	36810	
735	0	35296	
736	0	36896	
737	0	38424	
738	0	33274	
739	0	35202	
740	0	36684	
741	0	37488	
742	0	35158	
743	0	34304	
744	0	34642	
745	0	35068	
746	0	33942	
747	0	35484	
748	0	34320	
749	0	33680	
750	0	32100	
751	0	34868	
752	0	34664	
753	0	36359	
754	0	37278	
755	0	36465	
756	0	36064	
757	0	35718	
758	0	36784	
759	0	37010	
760	0	37160	
761	0	35719	
762	0	37920	
763	0	40594	
764	0	35940	
765	0	37508	
766	0	44840	
767	0	39034	
768	0	38444	
769	0	31224	
770	0	34980	
771	0	23460	
772	0	37200	
773	0	26816	
774	0	30938	
775	0	31077	
776	0	32728	
777	0	29920	
778	0	31204	
779	0	32489	
780	0	29848	
781	0	31687	
782	0	31485	
783	0	32071	
784	0	32518	
785	0	32698	
786	0	33024	
787	0	33426	
788	0	33542	
789	0	33725	
790	0	33607	
791	0	34802	
792	0	35112	
793	0	35309	
794	0	34726	
795	0	34545	
796	0	34269	
797	0	33886	
798	0	35590	
799	0	34580	
800	0	34600	
801	0	33696	
802	0	32133	
803	0	34512	
804	0	32440	
805	0	31584	
806	0	35164	
807	0	38632	
808	0	33728	
809	0	31802	
810	0	37712	
811	0	29820	
812	0	24421	
813	0	30002	
814	0	28678	
815	0	29924	
816	0	31290	
817	0	31148	
818	0	30792	
819	0	31098	
820	0	31322	
821	0	31663	
822	0	31881	
823	0	32078	
824	0	32385	
825	0	32704	
826	0	32860	
827	0	33302	
828	0	33824	
829	0	34226	
830	0	34866	
831	0	35240	
832	0	35608	
833	0	35719	
834	0	35776	
835	0	35786	
836	0	35871	
837	0	35812	
838	0	35708	
839	0	35655	
840	0	35653	
841	0	35560	
842	0	35410	
843	0	35376	
844	0	35632	
845	0	35812	
846	0	35949	
847	0	36470	
848	0	36388	
849	0	36231	
850	0	36039	
851	0	35922	
852	0	36024	
853	0	35755	
854	0	35740	
855	0	35353	
856	0	35048	
857	0	34770	
858	0	34552	
859	0	34529	
860	0	34311	
861	0	34212	
862	0	34040	
863	0	33693	
864	0	33440	
865	0	33280	
866	0	33213	
867	0	32716	
868	0	32123	
869	0	31943	
870	0	31234	
871	0	31110	
872	0	30622	
873	0	30265	
874	0	29872	
875	0	29850	
876	0	29012	
877	0	28224	
878	0	28082	
879	0	27708	
880	0	27143	
881	0	26902	
882	0	26561	
883	0	26340	
884	0	25951	
885	0	25028	
886	0	26024	
887	0	26348	
888	0	26553	
889	0	27218	
890	0	27408	
891	0	26114	
892	0	27032	
893	0	26247	
894	0	27584	
895	0	28980	
896	0	28283	
897	0	29100	
898	0	30312	
899	0	32541	
900	0	31675	
901	0	33112	
902	0	30462	
903	0	32711	
904	0	30855	
905	0	32732	
906	0	33960	
907	0	40404	
908	0	32408	
909	0	37758	
910	0	26672	
911	0	22648	
912	0	30492	
913	0	30700	
914	0	30441	
915	0	33052	
916	0	32314	
917	0	33922	
918	0	38720	
919	0	31248	
920	0	26444	
921	0	30976	
922	0	22152	
923	0	29204	
924	0	26672	
925	0	31380	
926	0	35140	
927	0	27626	
928	0	30944	
929	0	28556	
930	0	27502	
931	0	31424	
932	0	28900	
933	0	32563	
934	0	30190	
935	0	36656	
936	0	34311	
937	0	27655	
938	0	26181	
939	0	29228	
940	0	29727	
941	0	29321	
942	0	31250	
943	0	30854	
944	0	31362	
945	0	31394	
946	0	31770	
947	0	31998	
948	0	32008	
949	0	32292	
950	0	32032	
951	0	32953	
952	0	33252	
953	0	33344	
954	0	33280	
955	0	33445	
956	0	34024	
957	0	35207	
958	0	34496	
959	0	34592	
960	0	34564	
961	0	36656	
962	0	36555	
963	0	35197	
964	0	37149	
965	0	35138	
966	0	32391	
967	0	35761	
968	0	35364	
969	0	40296	
970	0	38444	
971	0	39460	
972	0	38064	
973	0	32108	
974	0	26562	
975	0	27934	
976	0	30544	
977	0	32232	
978	0	32784	
979	0	31393	
980	0	31652	
981	0	31974	
982	0	32036	
983	0	32330	
984	0	32196	
985	0	32733	
986	0	33434	
987	0	33429	
988	0	33872	
989	0	34819	
990	0	34640	
991	0	36160	
992	0	36032	
993	0	35840	
994	0	36144	
995	0	36324	
996	0	37104	
997	0	37338	
998	0	37402	
999	0	37456	
1000	0	37520	
1001	0	36634	
1002	0	36173	
1003	0	36612	
1004	0	36132	
1005	0	35693	
1006	0	35251	
1007	0	35718	
1008	0	35458	
1009	0	35361	
1010	0	35120	
1011	0	34680	
1012	0	34127	
1013	0	33972	
1014	0	33784	
1015	0	33412	
1016	0	33082	
1017	0	32902	
1018	0	32622	
1019	0	32627	
1020	0	32455	
1021	0	33333	
1022	0	31652	
1023	0	31532	
1024	0	31561	
1025	0	31960	
1026	0	32180	
1027	0	31974	
1028	0	31777	
1029	0	31675	
1030	0	31751	
1031	0	31738	
1032	0	32192	
1033	0	32552	
1034	0	32039	
1035	0	32028	
1036	0	32020	
1037	0	31888	
1038	0	32030	
1039	0	32010	
1040	0	32384	
1041	0	32344	
1042	0	32286	
1043	0	32414	
1044	0	32972	
1045	0	32408	
1046	0	32476	
1047	0	32826	
1048	0	32477	
1049	0	30256	
1050	0	28898	
1051	0	29334	
1052	0	30412	
1053	0	30919	
1054	0	31044	
1055	0	31021	
1056	0	31366	
1057	0	31084	
1058	0	31280	
1059	0	31175	
1060	0	30935	
1061	0	31205	
1062	0	30928	
1063	0	31112	
1064	0	30978	
1065	0	30828	
1066	0	30496	
1067	0	30436	
1068	0	30540	
1069	0	30620	
1070	0	30342	
1071	0	30614	
1072	0	30670	
1073	0	30855	
1074	0	30786	
1075	0	30727	
1076	0	30624	
1077	0	30400	
1078	0	30086	
1079	0	30124	
1080	0	30151	
1081	0	30060	
1082	0	30727	
1083	0	32148	
1084	0	32084	
1085	0	32420	
1086	0	32638	
1087	0	33436	
1088	0	32885	
1089	0	33148	
1090	0	33499	
1091	0	33799	
1092	0	33995	
1093	0	34062	
1094	0	34362	
1095	0	34534	
1096	0	34616	
1097	0	34704	
1098	0	34929	
1099	0	35168	
1100	0	34850	
1101	0	34488	
1102	0	34804	
1103	0	34777	
1104	0	34310	
1105	0	34162	
1106	0	34148	
1107	0	34397	
1108	0	34436	
1109	0	34318	
1110	0	34457	
1111	0	34420	
1112	0	34545	
1113	0	34177	
1114	0	34136	
1115	0	34174	
1116	0	34304	
1117	0	34425	
1118	0	34177	
1119	0	34224	
1120	0	33946	
1121	0	34068	
1122	0	34712	
1123	0	34607	
1124	0	32846	
1125	0	31620	
1126	0	32054	
1127	0	33650	
1128	0	34311	
1129	0	34630	
1130	0	34604	
1131	0	34710	
1132	0	34776	
1133	0	34456	
1134	0	34311	
1135	0	34285	
1136	0	33970	
1137	0	33984	
1138	0	33744	
1139	0	33826	
1140	0	33660	
1141	0	33757	
1142	0	33446	
1143	0	33472	
1144	0	33188	
1145	0	33063	
1146	0	33176	
1147	0	33137	
1148	0	33017	
1149	0	32762	
1150	0	32725	
1151	0	32711	
1152	0	32512	
1153	0	32320	
1154	0	32248	
1155	0	32328	
1156	0	32368	
1157	0	32428	
1158	0	32472	
1159	0	32394	
1160	0	32336	
1161	0	32312	
1162	0	32204	
1163	0	32190	
1164	0	32284	
1165	0	32310	
1166	0	32276	
1167	0	32178	
1168	0	32196	
1169	0	32140	
1170	0	32029	
1171	0	32018	
1172	0	31954	
1173	0	31858	
1174	0	31899	
1175	0	31986	
1176	0	32040	
1177	0	32020	
1178	0	32066	
1179	0	32038	
1180	0	32060	
1181	0	32134	
1182	0	32202	
1183	0	32248	
1184	0	32216	
1185	0	32294	
1186	0	32296	
1187	0	32238	
1188	0	32230	
1189	0	32312	
1190	0	32450	
1191	0	32472	
1192	0	32642	
1193	0	32647	
1194	0	32492	
1195	0	32376	
1196	0	32871	
1197	0	33368	
1198	0	32996	
1199	0	30984	
1200	0	30556	
1201	0	30868	
1202	0	32216	
1203	0	32796	
1204	0	33056	
1205	0	33220	
1206	0	33324	
1207	0	33391	
1208	0	33384	
1209	0	33321	
1210	0	33300	
1211	0	33360	
1212	0	33386	
1213	0	33335	
1214	0	33266	
1215	0	33415	
1216	0	33361	
1217	0	33296	
1218	0	33420	
1219	0	33412	
1220	0	33428	
1221	0	33370	
1222	0	33344	
1223	0	33462	
1224	0	33478	
1225	0	33447	
1226	0	33325	
1227	0	33028	
1228	0	33054	
1229	0	33024	
1230	0	32844	
1231	0	32749	
1232	0	32764	
1233	0	32738	
1234	0	32636	
1235	0	32580	
1236	0	32588	
1237	0	32556	
1238	0	32532	
1239	0	32519	
1240	0	32608	
1241	0	32594	
1242	0	32612	
1243	0	32662	
1244	0	32696	
1245	0	32632	
1246	0	32619	
1247	0	32670	
1248	0	32677	
1249	0	32711	
1250	0	32748	
1251	0	32576	
1252	0	32660	
1253	0	32656	
1254	0	32508	
1255	0	32454	
1256	0	32562	
1257	0	32606	
1258	0	32594	
1259	0	32684	
1260	0	32564	
1261	0	32524	
1262	0	32464	
1263	0	32484	
1264	0	32599	
1265	0	32504	
1266	0	32677	
1267	0	32596	
1268	0	32579	
1269	0	32620	
1270	0	32700	
1271	0	32872	
1272	0	33498	
1273	0	33280	
1274	0	31197	
1275	0	30286	
1276	0	30648	
1277	0	31896	
1278	0	32708	
1279	0	32992	
1280	0	33076	
1281	0	33052	
1282	0	33001	
1283	0	33123	
1284	0	33159	
1285	0	33150	
1286	0	33144	
1287	0	33113	
1288	0	33120	
1289	0	33159	
1290	0	33088	
1291	0	33085	
1292	0	33044	
1293	0	33067	
1294	0	32998	
1295	0	33072	
1296	0	33121	
1297	0	33170	
1298	0	33156	
1299	0	33153	
1300	0	33088	
1301	0	33089	
1302	0	33088	
1303	0	32800	
1304	0	32829	
1305	0	32732	
1306	0	32612	
1307	0	32576	
1308	0	32508	
1309	0	32622	
1310	0	32600	
1311	0	32626	
1312	0	32608	
1313	0	32576	
1314	0	32488	
1315	0	32488	
1316	0	32628	
1317	0	32646	
1318	0	32623	
1319	0	32613	
1320	0	32620	
1321	0	32658	
1322	0	32647	
1323	0	32720	
1324	0	32720	
1325	0	32688	
1326	0	32772	
1327	0	32674	
1328	0	32668	
1329	0	32574	
1330	0	32685	
1331	0	32708	
1332	0	32754	
1333	0	32839	
1334	0	32736	
1335	0	32628	
1336	0	32688	
1337	0	32566	
1338	0	32564	
1339	0	32632	
1340	0	32690	
1341	0	32699	
1342	0	32683	
1343	0	32725	
1344	0	32739	
1345	0	32804	
1346	0	33496	
1347	0	33622	
1348	0	32246	
1349	0	30566	
1350	0	30616	
1351	0	31932	
1352	0	32775	
1353	0	33120	
1354	0	33229	
1355	0	33264	
1356	0	33236	
1357	0	33244	
1358	0	33234	
1359	0	33220	
1360	0	33209	
1361	0	33164	
1362	0	33152	
1363	0	33128	
1364	0	33024	
1365	0	33125	
1366	0	33098	
1367	0	33056	
1368	0	33097	
1369	0	33055	
1370	0	33018	
1371	0	33112	
1372	0	33192	
1373	0	33204	
1374	0	33184	
1375	0	33112	
1376	0	32954	
1377	0	32858	
1378	0	32839	
1379	0	32775	
1380	0	32654	
1381	0	32642	
1382	0	32576	
1383	0	32621	
1384	0	32524	
1385	0	32544	
1386	0	32672	
1387	0	32715	
1388	0	32724	
1389	0	32710	
1390	0	32711	
1391	0	32700	
1392	0	32775	
1393	0	32864	
1394	0	32790	
1395	0	32732	
1396	0	32834	
1397	0	33048	
1398	0	33018	
1399	0	33004	
1400	0	33024	
1401	0	32980	
1402	0	32976	
1403	0	32924	
1404	0	32912	
1405	0	32948	
1406	0	32952	
1407	0	33043	
1408	0	33088	
1409	0	33052	
1410	0	32967	
1411	0	32850	
1412	0	32804	
1413	0	32813	
1414	0	32896	
1415	0	32813	
1416	0	32711	
1417	0	32888	
1418	0	32804	
1419	0	32856	
1420	0	32891	
1421	0	33202	
1422	0	33741	
1423	0	33213	
1424	0	30956	
1425	0	30322	
1426	0	31072	
1427	0	32448	
1428	0	32968	
1429	0	33178	
1430	0	33400	
1431	0	33378	
1432	0	33202	
1433	0	33500	
1434	0	33456	
1435	0	33560	
1436	0	33799	
1437	0	33786	
1438	0	33584	
1439	0	33620	
1440	0	33731	
1441	0	33744	
1442	0	33826	
1443	0	33858	
1444	0	34125	
1445	0	34152	
1446	0	34233	
1447	0	34242	
1448	0	34256	
1449	0	34130	
1450	0	34037	
1451	0	33996	
1452	0	33568	
1453	0	33700	
1454	0	33580	
1455	0	33280	
1456	0	33222	
1457	0	33144	
1458	0	33050	
1459	0	32828	
1460	0	33208	
1461	0	32839	
1462	0	33251	
1463	0	33062	
1464	0	33127	
1465	0	32878	
1466	0	32852	
1467	0	32864	
1468	0	32972	
1469	0	32725	
1470	0	32825	
1471	0	32376	
1472	0	32662	
1473	0	32360	
1474	0	32260	
1475	0	32148	
1476	0	31922	
1477	0	31622	
1478	0	31978	
1479	0	32032	
1480	0	32002	
1481	0	31928	
1482	0	31986	
1483	0	31960	
1484	0	31876	
1485	0	32352	
1486	0	32391	
1487	0	32252	
1488	0	32504	
1489	0	32388	
1490	0	32366	
1491	0	32614	
1492	0	32736	
1493	0	32807	
1494	0	32980	
1495	0	32647	
1496	0	33110	
1497	0	33254	
1498	0	33124	
1499	0	34204	
1500	0	34567	
1501	0	34075	
1502	0	32102	
1503	0	31556	
1504	0	32944	
1505	0	34360	
1506	0	34988	
1507	0	35248	
1508	0	35446	
1509	0	35416	
1510	0	35335	
1511	0	35452	
1512	0	35468	
1513	0	35640	
1514	0	35308	
1515	0	35142	
1516	0	34672	
1517	0	35064	
1518	0	34769	
1519	0	34731	
1520	0	34730	
1521	0	34421	
1522	0	34388	
1523	0	34085	
1524	0	33984	
1525	0	33624	
1526	0	33632	
1527	0	33530	
1528	0	33232	
1529	0	33208	
1530	0	33223	
1531	0	33052	
1532	0	33287	
1533	0	33144	
1534	0	32751	
1535	0	33282	
1536	0	33424	
1537	0	33209	
1538	0	33221	
1539	0	33064	
1540	0	32989	
1541	0	33000	
1542	0	32642	
1543	0	32338	
1544	0	32862	
1545	0	32672	
1546	0	32952	
1547	0	32754	
1548	0	32638	
1549	0	32888	
1550	0	32864	
1551	0	32848	
1552	0	32918	
1553	0	32564	
1554	0	32710	
1555	0	32640	
1556	0	32225	
1557	0	32445	
1558	0	32424	
1559	0	32194	
1560	0	32250	
1561	0	32186	
1562	0	32198	
1563	0	32502	
1564	0	32472	
1565	0	32454	
1566	0	32583	
1567	0	32494	
1568	0	32308	
1569	0	32226	
1570	0	32391	
1571	0	32546	
1572	0	32724	
1573	0	32802	
1574	0	32858	
1575	0	33035	
1576	0	33159	
1577	0	33400	
1578	0	32916	
1579	0	33768	
1580	0	33916	
1581	0	32281	
1582	0	29749	
1583	0	30128	
1584	0	32056	
1585	0	32706	
1586	0	33022	
1587	0	33368	
1588	0	33595	
1589	0	33728	
1590	0	33584	
1591	0	33744	
1592	0	33556	
1593	0	33740	
1594	0	33530	
1595	0	33456	
1596	0	33324	
1597	0	33618	
1598	0	33681	
1599	0	33543	
1600	0	33624	
1601	0	33685	
1602	0	33408	
1603	0	33581	
1604	0	33548	
1605	0	33453	
1606	0	33287	
1607	0	33380	
1608	0	33762	
1609	0	33241	
1610	0	32972	
1611	0	34152	
1612	0	34066	
1613	0	33287	
1614	0	33496	
1615	0	33924	
1616	0	34348	
1617	0	33730	
1618	0	33524	
1619	0	33598	
1620	0	33878	
1621	0	34271	
1622	0	33394	
1623	0	33552	
1624	0	33442	
1625	0	33466	
1626	0	33648	
1627	0	32967	
1628	0	33015	
1629	0	32660	
1630	0	32840	
1631	0	32880	
1632	0	32220	
1633	0	32828	
1634	0	32656	
1635	0	32258	
1636	0	31266	
1637	0	31724	
1638	0	31376	
1639	0	31965	
1640	0	30658	
1641	0	29928	
1642	0	29494	
1643	0	30394	
1644	0	29236	
1645	0	29332	
1646	0	30501	
1647	0	29862	
1648	0	30035	
1649	0	28456	
1650	0	29382	
1651	0	29400	
1652	0	29946	
1653	0	28489	
1654	0	28482	
1655	0	29006	
1656	0	29684	
1657	0	29912	
1658	0	29504	
1659	0	29600	
1660	0	29580	
1661	0	27673	
1662	0	27327	
1663	0	28261	
1664	0	29731	
1665	0	29616	
1666	0	29970	
1667	0	30206	
1668	0	30928	
1669	0	31684	
1670	0	30878	
1671	0	31220	
1672	0	32057	
1673	0	32176	
1674	0	32070	
1675	0	32300	
1676	0	32442	
1677	0	32929	
1678	0	32473	
1679	0	32976	
1680	0	32750	
1681	0	33274	
1682	0	33192	
1683	0	33218	
1684	0	33351	
1685	0	33735	
1686	0	33648	
1687	0	34024	
1688	0	34351	
1689	0	34549	
1690	0	34535	
1691	0	34758	
1692	0	35064	
1693	0	35240	
1694	0	35207	
1695	0	35136	
1696	0	35288	
1697	0	35545	
1698	0	35301	
1699	0	35224	
1700	0	35398	
1701	0	35380	
1702	0	34960	
1703	0	35069	
1704	0	35160	
1705	0	34692	
1706	0	34670	
1707	0	34464	
1708	0	34568	
1709	0	34386	
1710	0	33926	
1711	0	33672	
1712	0	32961	
1713	0	32986	
1714	0	32608	
1715	0	32888	
1716	0	31840	
1717	0	31562	
1718	0	30192	
1719	0	29275	
1720	0	30372	
1721	0	30094	
1722	0	29246	
1723	0	29278	
1724	0	28722	
1725	0	28761	
1726	0	28354	
1727	0	28544	
1728	0	28512	
1729	0	27616	
1730	0	28295	
1731	0	28859	
1732	0	29012	
1733	0	28562	
1734	0	29383	
1735	0	30616	
1736	0	30646	
1737	0	31084	
1738	0	31186	
1739	0	31610	
1740	0	32510	
1741	0	33671	
1742	0	33536	
1743	0	32384	
1744	0	30014	
1745	0	30038	
1746	0	32221	
1747	0	34564	
1748	0	34438	
1749	0	35424	
1750	0	35224	
1751	0	35463	
1752	0	34968	
1753	0	35847	
1754	0	36066	
1755	0	35496	
1756	0	35868	
1757	0	35020	
1758	0	35306	
1759	0	35826	
1760	0	35672	
1761	0	35522	
1762	0	35608	
1763	0	35606	
1764	0	35512	
1765	0	35184	
1766	0	35977	
1767	0	35814	
1768	0	36392	
1769	0	36327	
1770	0	36231	
1771	0	36100	
1772	0	36507	
1773	0	34380	
1774	0	35046	
1775	0	35862	
1776	0	36397	
1777	0	36551	
1778	0	36688	
1779	0	37231	
1780	0	37306	
1781	0	37788	
1782	0	39568	
1783	0	36998	
1784	0	35028	
1785	0	35092	
1786	0	35161	
1787	0	35497	
1788	0	35716	
1789	0	35399	
1790	0	34778	
1791	0	34840	
1792	0	34816	
1793	0	34784	
1794	0	34028	
1795	0	33704	
1796	0	33821	
1797	0	33756	
1798	0	33622	
1799	0	33448	
1800	0	33032	
1801	0	32399	
1802	0	32704	
1803	0	31910	
1804	0	31585	
1805	0	31238	
1806	0	30834	
1807	0	30835	
1808	0	31016	
1809	0	30930	
1810	0	31354	
1811	0	32182	
1812	0	31022	
1813	0	31144	
1814	0	31220	
1815	0	30407	
1816	0	30518	
1817	0	30564	
1818	0	30642	
1819	0	30048	
1820	0	30389	
1821	0	30194	
1822	0	30262	
1823	0	30456	
1824	0	31388	
1825	0	31809	
1826	0	30854	
1827	0	27732	
1828	0	27404	
1829	0	29767	
1830	0	31297	
1831	0	31472	
1832	0	31854	
1833	0	31776	
1834	0	31802	
1835	0	32048	
1836	0	31640	
1837	0	32034	
1838	0	31725	
1839	0	31312	
1840	0	31504	
1841	0	31398	
1842	0	30870	
1843	0	30816	
1844	0	30919	
1845	0	30908	
1846	0	30892	
1847	0	30722	
1848	0	30535	
1849	0	29889	
1850	0	29054	
1851	0	29094	
1852	0	29835	
1853	0	30509	
1854	0	30994	
1855	0	31386	
1856	0	32538	
1857	0	32688	
1858	0	33668	
1859	0	34586	
1860	0	34912	
1861	0	35453	
1862	0	35402	
1863	0	35806	
1864	0	36216	
1865	0	36141	
1866	0	35524	
1867	0	35480	
1868	0	35152	
1869	0	34752	
1870	0	35279	
1871	0	35081	
1872	0	34354	
1873	0	34840	
1874	0	35226	
1875	0	35780	
1876	0	36064	
1877	0	36502	
1878	0	36343	
1879	0	35856	
1880	0	36172	
1881	0	36048	
1882	0	35815	
1883	0	35364	
1884	0	34970	
1885	0	34536	
1886	0	33607	
1887	0	32966	
1888	0	32647	
1889	0	32306	
1890	0	31960	
1891	0	31116	
1892	0	31576	
1893	0	31330	
1894	0	30753	
1895	0	30608	
1896	0	31037	
1897	0	31014	
1898	0	30768	
1899	0	31362	
1900	0	31716	
1901	0	31366	
1902	0	31576	
1903	0	32112	
1904	0	31781	
1905	0	32416	
1906	0	32999	
1907	0	32041	
1908	0	29280	
1909	0	27920	
1910	0	30980	
1911	0	32903	
1912	0	32888	
1913	0	33122	
1914	0	33716	
1915	0	34768	
1916	0	35220	
1917	0	35312	
1918	0	37224	
1919	0	38744	
1920	0	38150	
1921	0	37630	
1922	0	39047	
1923	0	38378	
1924	0	37358	
1925	0	38729	
1926	0	39504	
1927	0	39034	
1928	0	39264	
1929	0	38872	
1930	0	39159	
1931	0	38345	
1932	0	38418	
1933	0	37382	
1934	0	36556	
1935	0	37360	
1936	0	36562	
1937	0	36284	
1938	0	35986	
1939	0	35968	
1940	0	35548	
1941	0	35099	
1942	0	34976	
1943	0	34460	
1944	0	33884	
1945	0	33712	
1946	0	33031	
1947	0	32438	
1948	0	31960	
1949	0	32004	
1950	0	31058	
1951	0	30786	
1952	0	30917	
1953	0	30797	
1954	0	30410	
1955	0	30204	
1956	0	30215	
1957	0	30586	
1958	0	30379	
1959	0	30776	
1960	0	31504	
1961	0	32084	
1962	0	31751	
1963	0	31328	
1964	0	30868	
1965	0	30862	
1966	0	31086	
1967	0	31160	
1968	0	31642	
1969	0	31850	
1970	0	31978	
1971	0	32074	
1972	0	31864	
1973	0	30942	
1974	0	31297	
1975	0	31303	
1976	0	30394	
1977	0	29611	
1978	0	28725	
1979	0	29810	
1980	0	30140	
1981	0	30016	
1982	0	31426	
1983	0	31620	
1984	0	32024	
1985	0	32485	
1986	0	30215	
1987	0	27280	
1988	0	27756	
1989	0	29760	
1990	0	30332	
1991	0	30660	
1992	0	30144	
1993	0	29862	
1994	0	29718	
1995	0	28798	
1996	0	29120	
1997	0	29273	
1998	0	29288	
1999	0	28957	
2000	0	29191	
2001	0	29734	
2002	0	30032	
2003	0	30322	
2004	0	30307	
2005	0	30398	
2006	0	30550	
2007	0	31212	
2008	0	31416	
2009	0	31238	
2010	0	31472	
2011	0	31594	
2012	0	31660	
2013	0	31336	
2014	0	31341	
2015	0	31298	
2016	0	30720	
2017	0	31604	
2018	0	31864	
2019	0	31568	
2020	0	31824	
2021	0	32386	
2022	0	32296	
2023	0	32946	
2024	0	33317	
2025	0	33750	
2026	0	33880	
2027	0	34722	
2028	0	34564	
2029	0	34259	
2030	0	33538	
2031	0	34377	
2032	0	34329	
2033	0	34183	
2034	0	34222	
2035	0	34034	
2036	0	35346	
2037	0	34760	
2038	0	34288	
2039	0	34119	
2040	0	34374	
2041	0	34072	
2042	0	34044	
2043	0	33447	
2044	0	33991	
2045	0	33216	
2046	0	33575	
2047	0	33045	
2048	0	33067	
2049	0	33098	
2050	0	32696	
2051	0	32422	
2052	0	32642	
2053	0	31864	
2054	0	32240	
2055	0	32928	
2056	0	32376	
2057	0	32919	
2058	0	31495	
2059	0	30700	
2060	0	30964	
2061	0	31606	
2062	0	31846	
2063	0	29654	
2064	0	27082	
2065	0	25848	
2066	0	27048	
2067	0	27464	
2068	0	29518	
2069	0	28626	
2070	0	27762	
2071	0	27506	
2072	0	28446	
2073	0	27200	
2074	0	26728	
2075	0	25504	
2076	0	26012	
2077	0	24724	
2078	0	24768	
2079	0	22509	
2080	0	24260	
2081	0	23668	
2082	0	24153	
2083	0	24232	
2084	0	24903	
2085	0	24816	
2086	0	24844	
2087	0	24184	
2088	0	23334	
2089	0	24606	
2090	0	24029	
2091	0	24530	
2092	0	24370	
2093	0	23840	
2094	0	26088	
2095	0	25968	
2096	0	25850	
2097	0	25693	
2098	0	26018	
2099	0	26352	
2100	0	27312	
2101	0	26657	
2102	0	26904	
2103	0	27840	
2104	0	28042	
2105	0	28211	
2106	0	27924	
2107	0	28502	
2108	0	28672	
2109	0	28185	
2110	0	29088	
2111	0	29028	
2112	0	30818	
2113	0	30535	
2114	0	30834	
2115	0	30978	
2116	0	30709	
2117	0	30440	
2118	0	31246	
2119	0	31336	
2120	0	31769	
2121	0	32256	
2122	0	31854	
2123	0	33184	
2124	0	33347	
2125	0	33576	
2126	0	34535	
2127	0	34372	
2128	0	34236	
2129	0	33872	
2130	0	34368	
2131	0	34772	
2132	0	34788	
2133	0	34785	
2134	0	34307	
2135	0	35834	
2136	0	35437	
2137	0	35742	
2138	0	36004	
2139	0	36999	
2140	0	37612	
2141	0	36978	
2142	0	34272	
2143	0	33048	
2144	0	35172	
2145	0	37470	
2146	0	37209	
2147	0	38726	
2148	0	38917	
2149	0	39378	
2150	0	39636	
2151	0	39768	
2152	0	39146	
2153	0	40094	
2154	0	40368	
2155	0	41064	
2156	0	41012	
2157	0	40208	
2158	0	41453	
2159	0	41943	
2160	0	41222	
2161	0	41429	
2162	0	41936	
2163	0	41432	
2164	0	43011	
2165	0	43936	
2166	0	42984	
2167	0	43264	
2168	0	42716	
2169	0	42245	
2170	0	41700	
2171	0	43610	
2172	0	43368	
2173	0	44376	
2174	0	44735	
2175	0	44856	
2176	0	44896	
2177	0	45101	
2178	0	45312	
2179	0	44752	
2180	0	44532	
2181	0	43792	
2182	0	43556	
2183	0	45212	
2184	0	43970	
2185	0	42585	
2186	0	41218	
2187	0	41049	
2188	0	42061	
2189	0	41437	
2190	0	43263	
2191	0	41576	
2192	0	41326	
2193	0	46522	
2194	0	39408	
2195	0	37049	
2196	0	39378	
2197	0	40604	
2198	0	36146	
2199	0	37232	
2200	0	37690	
2201	0	37151	
2202	0	38224	
2203	0	36776	
2204	0	37734	
2205	0	37575	
2206	0	30832	
2207	0	31800	
2208	0	32967	
2209	0	33226	
2210	0	32287	
2211	0	32388	
2212	0	31984	
2213	0	31904	
2214	0	30964	
2215	0	30692	
2216	0	29890	
2217	0	28906	
2218	0	31058	
2219	0	28509	
2220	0	24865	
2221	0	24384	
2222	0	26055	
2223	0	27143	
2224	0	26709	
2225	0	27328	
2226	0	27464	
2227	0	25917	
2228	0	26723	
2229	0	25837	
2230	0	25909	
2231	0	25724	
2232	0	24582	
2233	0	25602	
2234	0	25539	
2235	0	25206	
2236	0	24792	
2237	0	24944	
2238	0	24071	
2239	0	24464	
2240	0	24188	
2241	0	24480	
2242	0	23946	
2243	0	25221	
2244	0	24622	
2245	0	24760	
2246	0	24804	
2247	0	25424	
2248	0	25366	
2249	0	25986	
2250	0	25713	
2251	0	26684	
2252	0	26524	
2253	0	26128	
2254	0	26307	
2255	0	26880	
2256	0	27033	
2257	0	26644	
2258	0	27316	
2259	0	27004	
2260	0	27225	
2261	0	26727	
2262	0	26489	
2263	0	26887	
2264	0	26872	
2265	0	27289	
2266	0	27986	
2267	0	28120	
2268	0	28734	
2269	0	28444	
2270	0	28532	
2271	0	29080	
2272	0	29063	
2273	0	29664	
2274	0	29682	
2275	0	30336	
2276	0	30854	
2277	0	30532	
2278	0	30727	
2279	0	31559	
2280	0	31809	
2281	0	31628	
2282	0	32104	
2283	0	31665	
2284	0	32504	
2285	0	31482	
2286	0	32708	
2287	0	31820	
2288	0	32454	
2289	0	32690	
2290	0	32738	
2291	0	33408	
2292	0	32434	
2293	0	33308	
2294	0	33784	
2295	0	33795	
2296	0	34438	
2297	0	32016	
2298	0	30952	
2299	0	29301	
2300	0	33680	
2301	0	35573	
2302	0	34870	
2303	0	36969	
2304	0	36994	
2305	0	37336	
2306	0	36445	
2307	0	37968	
2308	0	38202	
2309	0	36974	
2310	0	36714	
2311	0	37488	
2312	0	37741	
2313	0	37336	
2314	0	37074	
2315	0	37191	
2316	0	37468	
2317	0	37076	
2318	0	37283	
2319	0	37218	
2320	0	38276	
2321	0	37782	
2322	0	38569	
2323	0	38322	
2324	0	39415	
2325	0	40647	
2326	0	40432	
2327	0	41786	
2328	0	41415	
2329	0	41922	
2330	0	42205	
2331	0	41986	
2332	0	42792	
2333	0	42366	
2334	0	43926	
2335	0	43286	
2336	0	44250	
2337	0	43399	
2338	0	40967	
2339	0	43508	
2340	0	41108	
2341	0	39180	
2342	0	37659	
2343	0	38210	
2344	0	39426	
2345	0	37818	
2346	0	37962	
2347	0	36408	
2348	0	35622	
2349	0	35583	
2350	0	34706	
2351	0	34468	
2352	0	34576	
2353	0	33980	
2354	0	33272	
2355	0	33258	
2356	0	32637	
2357	0	31468	
2358	0	32056	
2359	0	31204	
2360	0	31080	
2361	0	30766	
2362	0	30606	
2363	0	30288	
2364	0	29420	
2365	0	29285	
2366	0	28551	
2367	0	29177	
2368	0	28012	
2369	0	28440	
2370	0	27282	
2371	0	27204	
2372	0	26920	
2373	0	26528	
2374	0	26674	
2375	0	26992	
2376	0	24426	
2377	0	21706	
2378	0	21511	
2379	0	24192	
2380	0	25253	
2381	0	25510	
2382	0	25450	
2383	0	26016	
2384	0	26348	
2385	0	26440	
2386	0	26254	
2387	0	26912	
2388	0	26134	
2389	0	27274	
2390	0	26734	
2391	0	26464	
2392	0	26854	
2393	0	27816	
2394	0	27373	
2395	0	28424	
2396	0	27740	
2397	0	28740	
2398	0	28833	
2399	0	29024	
2400	0	29849	
2401	0	30120	
2402	0	30040	
2403	0	30355	
2404	0	30648	
2405	0	30489	
2406	0	31572	
2407	0	31854	
2408	0	32280	
2409	0	32096	
2410	0	32768	
2411	0	32532	
2412	0	33704	
2413	0	33324	
2414	0	34264	
2415	0	34650	
2416	0	33488	
2417	0	34476	
2418	0	34877	
2419	0	35028	
2420	0	34784	
2421	0	35060	
2422	0	34384	
2423	0	35463	
2424	0	34942	
2425	0	34823	
2426	0	34796	
2427	0	34189	
2428	0	35264	
2429	0	34290	
2430	0	34624	
2431	0	34814	
2432	0	33685	
2433	0	34720	
2434	0	34656	
2435	0	34304	
2436	0	33820	
2437	0	34850	
2438	0	34009	
2439	0	34474	
2440	0	35002	
2441	0	34240	
2442	0	34544	
2443	0	34085	
2444	0	34048	
2445	0	34384	
2446	0	34656	
2447	0	34406	
2448	0	34084	
2449	0	34455	
2450	0	34950	
2451	0	34388	
2452	0	34213	
2453	0	34857	
2454	0	35186	
2455	0	35032	
2456	0	32520	
2457	0	29446	
2458	0	32088	
2459	0	34818	
2460	0	35420	
2461	0	35709	
2462	0	36358	
2463	0	37472	
2464	0	37537	
2465	0	37490	
2466	0	36905	
2467	0	38382	
2468	0	39526	
2469	0	38645	
2470	0	38336	
2471	0	38854	
2472	0	39172	
2473	0	38940	
2474	0	38065	
2475	0	36836	
2476	0	38184	
2477	0	38120	
2478	0	37956	
2479	0	35322	
2480	0	36188	
2481	0	35264	
2482	0	34466	
2483	0	35816	
2484	0	35524	
2485	0	35324	
2486	0	35847	
2487	0	34849	
2488	0	35152	
2489	0	34618	
2490	0	34704	
2491	0	34188	
2492	0	34176	
2493	0	33464	
2494	0	33156	
2495	0	33272	
2496	0	33338	
2497	0	32720	
2498	0	32262	
2499	0	31860	
2500	0	31544	
2501	0	31492	
2502	0	31080	
2503	0	30404	
2504	0	29866	
2505	0	29636	
2506	0	29288	
2507	0	28996	
2508	0	28956	
2509	0	28364	
2510	0	27970	
2511	0	27887	
2512	0	27522	
2513	0	27132	
2514	0	27300	
2515	0	27295	
2516	0	26394	
2517	0	26258	
2518	0	27432	
2519	0	26816	
2520	0	26832	
2521	0	27044	
2522	0	27516	
2523	0	27023	
2524	0	27041	
2525	0	27452	
2526	0	27016	
2527	0	27776	
2528	0	27374	
2529	0	27578	
2530	0	28677	
2531	0	28717	
2532	0	28646	
2533	0	28434	
2534	0	29584	
2535	0	29129	
2536	0	30185	
2537	0	30208	
2538	0	28380	
2539	0	25665	
2540	0	26313	
2541	0	28263	
2542	0	29526	
2543	0	28832	
2544	0	29938	
2545	0	30279	
2546	0	31012	
2547	0	30989	
2548	0	30982	
2549	0	30690	
2550	0	30632	
2551	0	31117	
2552	0	31325	
2553	0	30590	
2554	0	31691	
2555	0	32051	
2556	0	31546	
2557	0	32033	
2558	0	31188	
2559	0	31714	
2560	0	32616	
2561	0	32828	
2562	0	31728	
2563	0	32502	
2564	0	32965	
2565	0	33056	
2566	0	33406	
2567	0	34053	
2568	0	33408	
2569	0	33892	
2570	0	35015	
2571	0	34980	
2572	0	35348	
2573	0	34458	
2574	0	36154	
2575	0	35754	
2576	0	35643	
2577	0	35544	
2578	0	35016	
2579	0	35766	
2580	0	34052	
2581	0	34872	
2582	0	34660	
2583	0	34390	
2584	0	34823	
2585	0	34342	
2586	0	34252	
2587	0	34397	
2588	0	34677	
2589	0	34226	
2590	0	34528	
2591	0	35207	
2592	0	34349	
2593	0	35350	
2594	0	34532	
2595	0	35271	
2596	0	35640	
2597	0	35159	
2598	0	34818	
2599	0	35504	
2600	0	35394	
2601	0	36144	
2602	0	35484	
2603	0	35660	
2604	0	35732	
2605	0	36615	
2606	0	36608	
2607	0	37414	
2608	0	36645	
2609	0	36332	
2610	0	36108	
2611	0	36992	
2612	0	37400	
2613	0	37696	
2614	0	38214	
2615	0	37568	
2616	0	37618	
2617	0	38864	
2618	0	39404	
2619	0	40378	
2620	0	41394	
2621	0	38382	
2622	0	33954	
2623	0	34192	
2624	0	39164	
2625	0	39576	
2626	0	42264	
2627	0	36871	
2628	0	39656	
2629	0	37848	
2630	0	37146	
2631	0	37776	
2632	0	37856	
2633	0	37952	
2634	0	38047	
2635	0	36968	
2636	0	35986	
2637	0	35020	
2638	0	34368	
2639	0	36240	
2640	0	33648	
2641	0	32720	
2642	0	31401	
2643	0	31239	
2644	0	30949	
2645	0	30635	
2646	0	29770	
2647	0	28628	
2648	0	28446	
2649	0	27962	
2650	0	27745	
2651	0	27591	
2652	0	27726	
2653	0	27698	
2654	0	27566	
2655	0	27708	
2656	0	27420	
2657	0	27678	
2658	0	27820	
2659	0	27684	
2660	0	28410	
2661	0	28300	
2662	0	28125	
2663	0	28500	
2664	0	28399	
2665	0	28222	
2666	0	28370	
2667	0	28812	
2668	0	29048	
2669	0	28800	
2670	0	29356	
2671	0	30075	
2672	0	31020	
2673	0	31626	
2674	0	32240	
2675	0	31147	
2676	0	31440	
2677	0	30960	
2678	0	31149	
2679	0	30941	
2680	0	30008	
2681	0	30075	
2682	0	29210	
2683	0	29660	
2684	0	29210	
2685	0	29726	
2686	0	29091	
2687	0	27992	
2688	0	29287	
2689	0	30278	
2690	0	29741	
2691	0	31332	
2692	0	31166	
2693	0	32292	
2694	0	33324	
2695	0	34288	
2696	0	34278	
2697	0	34112	
2698	0	33224	
2699	0	33281	
2700	0	32316	
2701	0	31892	
2702	0	32474	
2703	0	31770	
2704	0	31815	
2705	0	31543	
2706	0	29328	
2707	0	26980	
2708	0	27442	
2709	0	29776	
2710	0	30342	
2711	0	30725	
2712	0	32088	
2713	0	32096	
2714	0	32676	
2715	0	32080	
2716	0	32448	
2717	0	32667	
2718	0	32482	
2719	0	33287	
2720	0	33208	
2721	0	33536	
2722	0	33449	
2723	0	33254	
2724	0	34144	
2725	0	33932	
2726	0	34488	
2727	0	34250	
2728	0	34439	
2729	0	33650	
2730	0	34372	
2731	0	34297	
2732	0	33818	
2733	0	33488	
2734	0	33069	
2735	0	33735	
2736	0	34626	
2737	0	33351	
2738	0	33624	
2739	0	33423	
2740	0	33970	
2741	0	33671	
2742	0	33415	
2743	0	33569	
2744	0	33662	
2745	0	32080	
2746	0	33188	
2747	0	33404	
2748	0	33896	
2749	0	33944	
2750	0	34843	
2751	0	35573	
2752	0	36120	
2753	0	35706	
2754	0	35407	
2755	0	35020	
2756	0	34311	
2757	0	33948	
2758	0	33964	
2759	0	33505	
2760	0	33824	
2761	0	33399	
2762	0	33456	
2763	0	33472	
2764	0	33012	
2765	0	33148	
2766	0	33590	
2767	0	33306	
2768	0	33322	
2769	0	33479	
2770	0	33454	
2771	0	33444	
2772	0	33685	
2773	0	33552	
2774	0	33975	
2775	0	34284	
2776	0	33639	
2777	0	33930	
2778	0	33820	
2779	0	34012	
2780	0	33682	
2781	0	33551	
2782	0	33880	
2783	0	33396	
2784	0	33311	
2785	0	33078	
2786	0	33154	
2787	0	32816	
2788	0	32439	
2789	0	32867	
2790	0	31906	
2791	0	32344	
2792	0	32189	
2793	0	29816	
2794	0	26315	
2795	0	27021	
2796	0	29717	
2797	0	31219	
2798	0	31658	
2799	0	31750	
2800	0	32534	
2801	0	32380	
2802	0	34144	
2803	0	32606	
2804	0	32364	
2805	0	32993	
2806	0	33004	
2807	0	32775	
2808	0	31660	
2809	0	30386	
2810	0	31738	
2811	0	31978	
2812	0	31220	
2813	0	30152	
2814	0	31047	
2815	0	29273	
2816	0	30672	
2817	0	29782	
2818	0	29528	
2819	0	29808	
2820	0	29423	
2821	0	30011	
2822	0	30482	
2823	0	30544	
2824	0	30284	
2825	0	29644	
2826	0	30020	
2827	0	30538	
2828	0	29703	
2829	0	30096	
2830	0	29836	
2831	0	29986	
2832	0	29889	
2833	0	29962	
2834	0	30296	
2835	0	30340	
2836	0	30052	
2837	0	30689	
2838	0	30640	
2839	0	29748	
2840	0	30312	
2841	0	29874	
2842	0	30274	
2843	0	30342	
2844	0	30374	
2845	0	30948	
2846	0	31698	
2847	0	31559	
2848	0	32182	
2849	0	31512	
2850	0	32320	
2851	0	31544	
2852	0	32188	
2853	0	31274	
2854	0	32170	
2855	0	32672	
2856	0	31984	
2857	0	32310	
2858	0	31856	
2859	0	32117	
2860	0	31808	
2861	0	32255	
2862	0	32216	
2863	0	32599	
2864	0	32048	
2865	0	32790	
2866	0	31933	
2867	0	31424	
2868	0	31228	
2869	0	31122	
2870	0	31826	
2871	0	31687	
2872	0	31414	
2873	0	31208	
2874	0	33364	
2875	0	32360	
2876	0	31236	
2877	0	30964	
2878	0	31300	
2879	0	29844	
2880	0	30054	
2881	0	27726	
2882	0	24934	
2883	0	24732	
2884	0	26803	
2885	0	27648	
2886	0	28307	
2887	0	27522	
2888	0	28162	
2889	0	29062	
2890	0	28568	
2891	0	28669	
2892	0	28469	
2893	0	28320	
2894	0	29792	
2895	0	29161	
2896	0	30246	
2897	0	31670	
2898	0	31860	
2899	0	32478	
2900	0	32868	
2901	0	33838	
2902	0	33542	
2903	0	34688	
2904	0	35559	
2905	0	35675	
2906	0	36955	
2907	0	38019	
2908	0	37680	
2909	0	38183	
2910	0	39076	
2911	0	39328	
2912	0	38724	
2913	0	39658	
2914	0	39843	
2915	0	39341	
2916	0	39399	
2917	0	38769	
2918	0	39111	
2919	0	39320	
2920	0	39824	
2921	0	38810	
2922	0	39238	
2923	0	37895	
2924	0	38023	
2925	0	37760	
2926	0	36949	
2927	0	37464	
2928	0	37308	
2929	0	35956	
2930	0	36806	
2931	0	36790	
2932	0	36388	
2933	0	36242	
2934	0	36743	
2935	0	36520	
2936	0	37293	
2937	0	36930	
2938	0	38128	
2939	0	38262	
2940	0	37161	
2941	0	36552	
2942	0	36359	
2943	0	36976	
2944	0	35565	
2945	0	35968	
2946	0	36306	
2947	0	36822	
2948	0	37084	
2949	0	36440	
2950	0	36128	
2951	0	35980	
2952	0	36540	
2953	0	36315	
2954	0	36256	
2955	0	35534	
2956	0	34840	
2957	0	34746	
2958	0	34793	
2959	0	35076	
2960	0	33792	
2961	0	32368	
2962	0	33193	
2963	0	33030	
2964	0	33524	
2965	0	33444	
2966	0	33076	
2967	0	32583	
2968	0	32540	
2969	0	32530	
2970	0	33900	
2971	0	33031	
2972	0	30613	
2973	0	28218	
2974	0	29864	
2975	0	30695	
2976	0	31111	
2977	0	30694	
2978	0	31120	
2979	0	31047	
2980	0	30998	
2981	0	31549	
2982	0	31122	
2983	0	32024	
2984	0	31686	
2985	0	31835	
2986	0	31696	
2987	0	32078	
2988	0	32327	
2989	0	32700	
2990	0	32358	
2991	0	31989	
2992	0	32068	
2993	0	31596	
2994	0	31708	
2995	0	32706	
2996	0	32661	
2997	0	33734	
2998	0	32825	
2999	0	33684	
3000	0	33879	
3001	0	32839	
3002	0	32818	
3003	0	31518	
3004	0	31768	
3005	0	30432	
3006	0	31472	
3007	0	30974	
3008	0	30727	
3009	0	30722	
3010	0	31412	
3011	0	30999	
3012	0	31434	
3013	0	31960	
3014	0	31476	
3015	0	32176	
3016	0	31884	
3017	0	31846	
3018	0	31029	
3019	0	31336	
3020	0	30485	
3021	0	30100	
3022	0	29020	
3023	0	29460	
3024	0	29132	
3025	0	28980	
3026	0	29140	
3027	0	29720	
3028	0	30096	
3029	0	30552	
3030	0	31176	
3031	0	30743	
3032	0	31574	
3033	0	31498	
3034	0	31504	
3035	0	31595	
3036	0	31954	
3037	0	31662	
3038	0	31328	
3039	0	31810	
3040	0	31701	
3041	0	31952	
3042	0	32071	
3043	0	31338	
3044	0	31412	
3045	0	31716	
3046	0	31912	
3047	0	31815	
3048	0	31882	
3049	0	31332	
3050	0	30757	
3051	0	31315	
3052	0	31089	
3053	0	30310	
3054	0	30542	
3055	0	29730	
3056	0	30760	
3057	0	30246	
3058	0	30909	
3059	0	31040	
3060	0	30922	
3061	0	31224	
3062	0	31308	
3063	0	31518	
3064	0	28932	
3065	0	26681	
3066	0	28295	
3067	0	30572	
3068	0	32174	
3069	0	32380	
3070	0	32598	
3071	0	33713	
3072	0	33172	
3073	0	33338	
3074	0	33848	
3075	0	33884	
3076	0	33281	
3077	0	33956	
3078	0	33213	
3079	0	33134	
3080	0	33671	
3081	0	33889	
3082	0	34123	
3083	0	34375	
3084	0	33652	
3085	0	32876	
3086	0	33474	
3087	0	33258	
3088	0	34174	
3089	0	34126	
3090	0	33064	
3091	0	34004	
3092	0	32748	
3093	0	34492	
3094	0	36176	
3095	0	34080	
3096	0	33530	
3097	0	33506	
3098	0	34141	
3099	0	35740	
3100	0	35432	
3101	0	35538	
3102	0	34614	
3103	0	35794	
3104	0	35143	
3105	0	35166	
3106	0	35898	
3107	0	35143	
3108	0	35357	
3109	0	34996	
3110	0	35073	
3111	0	34697	
3112	0	34476	
3113	0	33799	
3114	0	33669	
3115	0	32349	
3116	0	31651	
3117	0	31012	
3118	0	30714	
3119	0	30805	
3120	0	31128	
3121	0	30811	
3122	0	30830	
3123	0	30276	
3124	0	29437	
3125	0	29315	
3126	0	29360	
3127	0	29378	
3128	0	29479	
3129	0	28912	
3130	0	28847	
3131	0	29686	
3132	0	29882	
3133	0	28048	
3134	0	27808	
3135	0	27804	
3136	0	28344	
3137	0	28880	
3138	0	29560	
3139	0	29904	
3140	0	29874	
3141	0	29964	
3142	0	29161	
3143	0	29340	
3144	0	29407	
3145	0	29024	
3146	0	27551	
3147	0	26752	
3148	0	27064	
3149	0	26648	
3150	0	26966	
3151	0	25824	
3152	0	26522	
3153	0	26240	
3154	0	22618	
3155	0	21928	
3156	0	23456	
3157	0	25599	
3158	0	25044	
3159	0	27128	
3160	0	27243	
3161	0	27911	
3162	0	29292	
3163	0	29122	
3164	0	29312	
3165	0	28728	
3166	0	28516	
3167	0	28551	
3168	0	28422	
3169	0	29620	
3170	0	28864	
3171	0	29436	
3172	0	29784	
3173	0	29703	
3174	0	31239	
3175	0	31195	
3176	0	31763	
3177	0	31777	
3178	0	31499	
3179	0	31436	
3180	0	31224	
3181	0	31593	
3182	0	31771	
3183	0	32208	
3184	0	32240	
3185	0	32720	
3186	0	32416	
3187	0	32632	
3188	0	32858	
3189	0	32762	
3190	0	33354	
3191	0	34359	
3192	0	34609	
3193	0	36028	
3194	0	36623	
3195	0	36620	
3196	0	38804	
3197	0	39044	
3198	0	39258	
3199	0	40138	
3200	0	40488	
3201	0	37398	
3202	0	35330	
3203	0	45514	
3204	0	41328	
3205	0	40294	
3206	0	43222	
3207	0	41872	
3208	0	41456	
3209	0	43655	
3210	0	43056	
3211	0	43840	
3212	0	45074	
3213	0	44380	
3214	0	40866	
3215	0	42244	
3216	0	44816	
3217	0	41728	
3218	0	43380	
3219	0	40290	
3220	0	45136	
3221	0	34281	
3222	0	41716	
3223	0	41736	
3224	0	41280	
3225	0	38500	
3226	0	43385	
3227	0	39874	
3228	0	50236	
3229	0	34554	
3230	0	40553	
3231	0	42024	
3232	0	34874	
3233	0	40890	
3234	0	41130	
3235	0	40036	
3236	0	35795	
3237	0	38140	
3238	0	32740	
3239	0	41644	
3240	0	37245	
3241	0	37570	
3242	0	30459	
3243	0	38023	
3244	0	34144	
3245	0	36938	
3246	0	34590	
3247	0	33344	
3248	0	32276	
3249	0	34311	
3250	0	33592	
3251	0	33684	
3252	0	33592	
3253	0	34532	
3254	0	33840	
3255	0	34013	
3256	0	34631	
3257	0	35678	
3258	0	35835	
3259	0	35463	
3260	0	35718	
3261	0	33984	
3262	0	35069	
3263	0	36077	
3264	0	36548	
3265	0	34738	
3266	0	35940	
3267	0	35892	
3268	0	36086	
3269	0	36120	
3270	0	36807	
3271	0	34970	
3272	0	35380	
3273	0	34609	
3274	0	34585	
3275	0	34776	
3276	0	34470	
3277	0	33616	
3278	0	34681	
3279	0	33128	
3280	0	34294	
3281	0	33991	
3282	0	33145	
3283	0	29721	
3284	0	33160	
3285	0	31592	
3286	0	30960	
3287	0	28864	
3288	0	26252	
3289	0	25792	
3290	0	21698	
3291	0	26216	
3292	0	29370	
3293	0	20462	
3294	0	28805	
3295	0	24268	
3296	0	25799	
3297	0	24813	
3298	0	24572	
3299	0	29182	
3300	0	27355	
3301	0	27669	
3302	0	27796	
3303	0	28218	
3304	0	29202	
3305	0	28800	
3306	0	30322	
3307	0	30500	
3308	0	30071	
3309	0	30532	
3310	0	31402	
3311	0	32632	
3312	0	32064	
3313	0	34603	
3314	0	33796	
3315	0	33354	
3316	0	34375	
3317	0	34438	
3318	0	33175	
3319	0	31790	
3320	0	30546	
3321	0	33704	
3322	0	33378	
3323	0	33765	
3324	0	34055	
3325	0	33556	
3326	0	34386	
3327	0	31634	
3328	0	33920	
3329	0	33430	
3330	0	33139	
3331	0	32107	
3332	0	31396	
3333	0	32570	
3334	0	31409	
3335	0	30164	
3336	0	31648	
3337	0	31448	
3338	0	33914	
3339	0	29622	
3340	0	31554	
3341	0	33080	
3342	0	28306	
3343	0	30814	
3344	0	30650	
3345	0	27591	
3346	0	24632	
3347	0	29052	
3348	0	28268	
3349	0	28431	
3350	0	28478	
3351	0	29596	
3352	0	29790	
3353	0	30620	
3354	0	30713	
3355	0	30712	
3356	0	32112	
3357	0	32972	
3358	0	33461	
3359	0	34684	
3360	0	34906	
3361	0	35414	
3362	0	36071	
3363	0	36730	
3364	0	37108	
3365	0	37465	
3366	0	37256	
3367	0	38333	
3368	0	37840	
3369	0	36870	
3370	0	36886	
3371	0	37016	
3372	0	37484	
3373	0	38502	
3374	0	37848	
3375	0	37176	
3376	0	36980	
3377	0	35705	
3378	0	36584	
3379	0	34752	
3380	0	35533	
3381	0	34980	
3382	0	35600	
3383	0	36584	
3384	0	35334	
3385	0	33896	
3386	0	31882	
3387	0	33052	
3388	0	32518	
3389	0	32263	
3390	0	31702	
3391	0	32318	
3392	0	30793	
3393	0	31692	
3394	0	33787	
3395	0	30727	
3396	0	33786	
3397	0	31170	
3398	0	28870	
3399	0	23990	
3400	0	29556	
3401	0	24168	
3402	0	36498	
3403	0	30855	
3404	0	32594	
3405	0	31464	
3406	0	27234	
3407	0	30236	
3408	0	29888	
3409	0	28742	
3410	0	29172	
3411	0	29342	
3412	0	29573	
3413	0	30298	
3414	0	31832	
3415	0	30850	
3416	0	30860	
3417	0	31072	
3418	0	30598	
3419	0	31152	
3420	0	32517	
3421	0	33613	
3422	0	33868	
3423	0	34407	
3424	0	34277	
3425	0	35334	
3426	0	35478	
3427	0	35232	
3428	0	35522	
3429	0	35416	
3430	0	35380	
3431	0	35660	
3432	0	36278	
3433	0	35860	
3434	0	36132	
3435	0	35684	
3436	0	35734	
3437	0	35137	
3438	0	35392	
3439	0	34878	
3440	0	34777	
3441	0	34436	
3442	0	33896	
3443	0	34133	
3444	0	33830	
3445	0	34455	
3446	0	34394	
3447	0	33287	
3448	0	34160	
3449	0	33620	
3450	0	32646	
3451	0	32646	
3452	0	31898	
3453	0	31649	
3454	0	31171	
3455	0	29856	
3456	0	30168	
3457	0	29792	
3458	0	29416	
3459	0	28988	
3460	0	28326	
3461	0	28360	
3462	0	28180	
3463	0	27360	
3464	0	27608	
3465	0	27290	
3466	0	26880	
3467	0	26187	
3468	0	25846	
3469	0	25158	
3470	0	24937	
3471	0	24621	
3472	0	25080	
3473	0	25357	
3474	0	25281	
3475	0	23234	
3476	0	21140	
3477	0	21634	
3478	0	24989	
3479	0	26482	
3480	0	27284	
3481	0	28242	
3482	0	28364	
3483	0	28996	
3484	0	29534	
3485	0	29127	
3486	0	30541	
3487	0	30768	
3488	0	31789	
3489	0	31397	
3490	0	31465	
3491	0	32096	
3492	0	31848	
3493	0	32160	
3494	0	33879	
3495	0	33338	
3496	0	32792	
3497	0	31266	
3498	0	32424	
3499	0	33287	
3500	0	31596	
3501	0	31300	
3502	0	30092	
3503	0	32160	
3504	0	33300	
3505	0	28556	
3506	0	33097	
3507	0	33074	
3508	0	29460	
3509	0	26084	
3510	0	29904	
3511	0	39984	
3512	0	36420	
3513	0	36952	
3514	0	35922	
3515	0	28824	
3516	0	40934	
3517	0	39943	
3518	0	29830	
3519	0	37892	
3520	0	29478	
3521	0	40666	
3522	0	34976	
3523	0	40036	
3524	0	34938	
3525	0	32391	
3526	0	34788	
3527	0	37506	
3528	0	34311	
3529	0	35964	
3530	0	35420	
3531	0	35079	
3532	0	35606	
3533	0	35749	
3534	0	35870	
3535	0	36108	
3536	0	36544	
3537	0	36588	
3538	0	36970	
3539	0	37330	
3540	0	36828	
3541	0	37968	
3542	0	38472	
3543	0	37908	
3544	0	39547	
3545	0	38944	
3546	0	39656	
3547	0	39290	
3548	0	37618	
3549	0	38592	
3550	0	39170	
3551	0	37906	
3552	0	39200	
3553	0	36604	
3554	0	32752	
3555	0	31897	
3556	0	34414	
3557	0	35784	
3558	0	37318	
3559	0	36713	
3560	0	36912	
3561	0	36351	
3562	0	35807	
3563	0	35666	
3564	0	36164	
3565	0	35316	
3566	0	35176	
3567	0	36412	
3568	0	36359	
3569	0	35186	
3570	0	33830	
3571	0	35316	
3572	0	34375	
3573	0	33360	
3574	0	32167	
3575	0	32804	
3576	0	32902	
3577	0	33357	
3578	0	33568	
3579	0	33528	
3580	0	34146	
3581	0	33636	
3582	0	33302	
3583	0	33245	
3584	0	32460	
3585	0	32665	
3586	0	33010	
3587	0	31900	
3588	0	32018	
3589	0	32352	
3590	0	32183	
3591	0	31880	
3592	0	32696	
3593	0	31884	
3594	0	33082	
3595	0	33038	
3596	0	31352	
3597	0	30764	
3598	0	31391	
3599	0	30364	
3600	0	33100	
3601	0	31336	
3602	0	30940	
3603	0	30590	
3604	0	28984	
3605	0	28782	
3606	0	28874	
3607	0	29235	
3608	0	29283	
3609	0	28082	
3610	0	28918	
3611	0	29637	
3612	0	29144	
3613	0	29732	
3614	0	30172	
3615	0	30074	
3616	0	30016	
3617	0	30791	
3618	0	29280	
3619	0	29713	
3620	0	28833	
3621	0	30212	
3622	0	29030	
3623	0	29398	
3624	0	30176	
3625	0	29594	
3626	0	30784	
3627	0	29970	
3628	0	28648	
3629	0	26216	
3630	0	27096	
3631	0	29200	
3632	0	30501	
3633	0	31310	
3634	0	31784	
3635	0	31638	
3636	0	32224	
3637	0	33072	
3638	0	31781	
3639	0	33384	
3640	0	32410	
3641	0	32380	
3642	0	31910	
3643	0	32314	
3644	0	32914	
3645	0	32374	
3646	0	31064	
3647	0	33575	
3648	0	33352	
3649	0	32742	
3650	0	33065	
3651	0	33400	
3652	0	32135	
3653	0	32558	
3654	0	32902	
3655	0	33838	
3656	0	33232	
3657	0	33145	
3658	0	32827	
3659	0	32036	
3660	0	33245	
3661	0	33024	
3662	0	32580	
3663	0	32848	
3664	0	33442	
3665	0	33120	
3666	0	32600	
3667	0	33760	
3668	0	32464	
3669	0	32792	
3670	0	33320	
3671	0	33892	
3672	0	32984	
3673	0	33046	
3674	0	32952	
3675	0	33218	
3676	0	34256	
3677	0	33680	
3678	0	33916	
3679	0	33636	
3680	0	34036	
3681	0	33520	
3682	0	33772	
3683	0	33991	
3684	0	34460	
3685	0	34500	
3686	0	35073	
3687	0	35207	
3688	0	34136	
3689	0	34750	
3690	0	34440	
3691	0	34676	
3692	0	35047	
3693	0	35346	
3694	0	35990	
3695	0	34860	
3696	0	34078	
3697	0	35411	
3698	0	35184	
3699	0	35520	
3700	0	34708	
3701	0	35000	
3702	0	33260	
3703	0	28272	
3704	0	31098	
3705	0	32240	
3706	0	33196	
3707	0	31170	
3708	0	32665	
3709	0	31976	
3710	0	33622	
3711	0	33287	
3712	0	32613	
3713	0	33740	
3714	0	32290	
3715	0	32505	
3716	0	29767	
3717	0	30260	
3718	0	31330	
3719	0	30608	
3720	0	31602	
3721	0	30968	
3722	0	29639	
3723	0	32000	
3724	0	31422	
3725	0	31920	
3726	0	33150	
3727	0	33136	
3728	0	33543	
3729	0	32630	
3730	0	33226	
3731	0	31990	
3732	0	31081	
3733	0	29920	
3734	0	30049	
3735	0	30128	
3736	0	30528	
3737	0	30727	
3738	0	31495	
3739	0	31770	
3740	0	32070	
3741	0	31175	
3742	0	31507	
3743	0	32026	
3744	0	31946	
3745	0	32166	
3746	0	32640	
3747	0	32008	
3748	0	32236	
3749	0	32146	
3750	0	32438	
3751	0	32824	
3752	0	33637	
3753	0	33058	
3754	0	32852	
3755	0	32405	
3756	0	32060	
3757	0	32022	
3758	0	32404	
3759	0	32751	
3760	0	32304	
3761	0	32279	
3762	0	32139	
3763	0	32050	
3764	0	32274	
3765	0	32096	
3766	0	31996	
3767	0	33484	
3768	0	32528	
3769	0	32592	
3770	0	32774	
3771	0	32476	
3772	0	32894	
3773	0	32946	
3774	0	32992	
3775	0	32708	
3776	0	31225	
3777	0	29697	
3778	0	29968	
3779	0	31487	
3780	0	31860	
3781	0	31620	
3782	0	31785	
3783	0	32288	
3784	0	32233	
3785	0	32230	
3786	0	32460	
3787	0	31635	
3788	0	31510	
3789	0	31917	
3790	0	31152	
3791	0	31136	
3792	0	31467	
3793	0	31724	
3794	0	31852	
3795	0	31818	
3796	0	32000	
3797	0	32169	
3798	0	31781	
3799	0	31908	
3800	0	31744	
3801	0	31374	
3802	0	31832	
3803	0	31914	
3804	0	32081	
3805	0	31519	
3806	0	31956	
3807	0	32154	
3808	0	32412	
3809	0	32496	
3810	0	32551	
3811	0	32721	
3812	0	32553	
3813	0	31932	
3814	0	31914	
3815	0	32686	
3816	0	32552	
3817	0	32332	
3818	0	32414	
3819	0	32374	
3820	0	31930	
3821	0	32082	
3822	0	32125	
3823	0	32220	
3824	0	32396	
3825	0	32715	
3826	0	32930	
3827	0	32600	
3828	0	32688	
3829	0	33095	
3830	0	33046	
3831	0	32768	
3832	0	32769	
3833	0	32486	
3834	0	33437	
3835	0	33036	
3836	0	32223	
3837	0	32726	
3838	0	32412	
3839	0	32496	
3840	0	32422	
3841	0	32576	
3842	0	33250	
3843	0	33408	
3844	0	32985	
3845	0	33494	
3846	0	33786	
3847	0	33916	
3848	0	33991	
3849	0	34375	
3850	0	34588	
3851	0	35124	
3852	0	33380	
3853	0	31460	
3854	0	32877	
3855	0	34580	
3856	0	35196	
3857	0	35388	
3858	0	34627	
3859	0	35448	
3860	0	35520	
3861	0	35098	
3862	0	35396	
3863	0	35024	
3864	0	35399	
3865	0	35167	
3866	0	34797	
3867	0	34482	
3868	0	34656	
3869	0	34601	
3870	0	34422	
3871	0	34234	
3872	0	34628	
3873	0	34608	
3874	0	34507	
3875	0	34224	
3876	0	34183	
3877	0	34375	
3878	0	34281	
3879	0	34204	
3880	0	33904	
3881	0	34164	
3882	0	34246	
3883	0	34340	
3884	0	33947	
3885	0	34230	
3886	0	34226	
3887	0	33840	
3888	0	33844	
3889	0	33710	
3890	0	33792	
3891	0	33490	
3892	0	33204	
3893	0	33084	
3894	0	33122	
3895	0	33053	
3896	0	33287	
3897	0	33184	
3898	0	32790	
3899	0	32850	
3900	0	32830	
3901	0	32700	
3902	0	32432	
3903	0	32571	
3904	0	32609	
3905	0	32763	
3906	0	32466	
3907	0	32485	
3908	0	32562	
3909	0	32488	
3910	0	32528	
3911	0	32667	
3912	0	32434	
3913	0	32284	
3914	0	32146	
3915	0	32263	
3916	0	32062	
3917	0	32204	
3918	0	31808	
3919	0	30994	
3920	0	30760	
3921	0	31042	
3922	0	31112	
3923	0	31290	
3924	0	32164	
3925	0	32230	
3926	0	30727	
3927	0	29496	
3928	0	30064	
3929	0	31428	
3930	0	31993	
3931	0	32316	
3932	0	32444	
3933	0	32694	
3934	0	32534	
3935	0	32532	
3936	0	32461	
3937	0	32336	
3938	0	32356	
3939	0	32331	
3940	0	32448	
3941	0	32578	
3942	0	32550	
3943	0	32767	
3944	0	32510	
3945	0	32762	
3946	0	32698	
3947	0	32972	
3948	0	32996	
3949	0	33048	
3950	0	33172	
3951	0	33172	
3952	0	33020	
3953	0	32903	
3954	0	32722	
3955	0	32729	
3956	0	32775	
3957	0	32772	
3958	0	32560	
3959	0	32732	
3960	0	32630	
3961	0	32621	
3962	0	32372	
3963	0	32298	
3964	0	32197	
3965	0	32191	
3966	0	32120	
3967	0	32124	
3968	0	32088	
3969	0	32180	
3970	0	31988	
3971	0	31996	
3972	0	32072	
3973	0	32048	
3974	0	32017	
3975	0	32173	
3976	0	32299	
3977	0	32460	
3978	0	32524	
3979	0	32576	
3980	0	32736	
3981	0	32908	
3982	0	32825	
3983	0	32971	
3984	0	32976	
3985	0	33070	
3986	0	33041	
3987	0	33160	
3988	0	33008	
3989	0	33019	
3990	0	33062	
3991	0	33284	
3992	0	33285	
3993	0	33343	
3994	0	33395	
3995	0	33554	
3996	0	33400	
3997	0	33479	
3998	0	33358	
3999	0	33549	
4000	0	34119	
4001	0	33850	
4002	0	32102	
4003	0	30868	
4004	0	31367	
4005	0	32556	
4006	0	33136	
4007	0	33302	
4008	0	33362	
4009	0	33280	
4010	0	33144	
4011	0	33186	
4012	0	33186	
4013	0	33144	
4014	0	33048	
4015	0	33112	
4016	0	33094	
4017	0	33285	
4018	0	33182	
4019	0	33117	
4020	0	33036	
4021	0	33031	
4022	0	33034	
4023	0	33300	
4024	0	33145	
4025	0	33501	
4026	0	33427	
4027	0	33342	
4028	0	33128	
4029	0	33167	
4030	0	33016	
4031	0	33074	
4032	0	32973	
4033	0	32938	
4034	0	32903	
4035	0	33016	
4036	0	32906	
4037	0	32802	
4038	0	32928	
4039	0	32832	
4040	0	32794	
4041	0	32878	
4042	0	32720	
4043	0	32674	
4044	0	32749	
4045	0	32646	
4046	0	32660	
4047	0	32636	
4048	0	32548	
4049	0	32534	
4050	0	32368	
4051	0	32492	
4052	0	32514	
4053	0	32518	
4054	0	32429	
4055	0	32588	
4056	0	32562	
4057	0	32624	
4058	0	32582	
4059	0	32514	
4060	0	32633	
4061	0	32664	
4062	0	32592	
4063	0	32582	
4064	0	32568	
4065	0	32606	
4066	0	32716	
4067	0	32681	
4068	0	32612	
4069	0	32628	
4070	0	32598	
4071	0	32658	
4072	0	32746	
4073	0	32839	
4074	0	32890	
4075	0	32762	
4076	0	32899	
4077	0	32896	
4078	0	32960	
4079	0	32951	
4080	0	33528	
4081	0	33400	
4082	0	31716	
4083	0	30560	
4084	0	30642	
4085	0	31868	
4086	0	32775	
4087	0	33083	
4088	0	33082	
4089	0	33156	
4090	0	33174	
4091	0	33232	
4092	0	33068	
4093	0	32946	
4094	0	33131	
4095	0	33094	
4096	0	33088	
4097	0	33092	
4098	0	33086	
4099	0	33070	
4100	0	32984	
4101	0	32914	
4102	0	32868	
4103	0	32864	
4104	0	32861	
4105	0	32802	
4106	0	32768	
4107	0	32952	
4108	0	32970	
4109	0	32732	
4110	0	32642	
4111	0	32843	
4112	0	32730	
4113	0	32714	
4114	0	32664	
4115	0	32892	
4116	0	32898	
4117	0	32775	
4118	0	32843	
4119	0	32804	
4120	0	32848	
4121	0	32771	
4122	0	32634	
4123	0	32720	
4124	0	32674	
4125	0	32830	
4126	0	32788	
4127	0	32570	
4128	0	32647	
4129	0	32692	
4130	0	32604	
4131	0	32583	
4132	0	32608	
4133	0	32818	
4134	0	32696	
4135	0	32620	
4136	0	32617	
4137	0	32556	
4138	0	32624	
4139	0	32742	
4140	0	32658	
4141	0	32566	
4142	0	32616	
4143	0	32624	
4144	0	32646	
4145	0	32602	
4146	0	32480	
4147	0	32532	
4148	0	32592	
4149	0	32699	
4150	0	32612	
4151	0	32571	
4152	0	32508	
4153	0	32722	
4154	0	32792	
4155	0	32617	
4156	0	32646	
4157	0	32592	
4158	0	32576	
4159	0	32573	
4160	0	32416	
4161	0	32600	
4162	0	32558	
4163	0	32617	
4164	0	32732	
4165	0	32713	
4166	0	32751	
4167	0	33359	
4168	0	33440	
4169	0	32298	
4170	0	30496	
4171	0	30368	
4172	0	31448	
4173	0	32391	
4174	0	32914	
4175	0	32924	
4176	0	32985	
4177	0	32999	
4178	0	33022	
4179	0	33046	
4180	0	32984	
4181	0	33048	
4182	0	32862	
4183	0	33017	
4184	0	33124	
4185	0	33080	
4186	0	33017	
4187	0	33072	
4188	0	33106	
4189	0	33040	
4190	0	33004	
4191	0	33000	
4192	0	33156	
4193	0	33090	
4194	0	33036	
4195	0	33000	
4196	0	32924	
4197	0	32816	
4198	0	32877	
4199	0	32829	
4200	0	32722	
4201	0	32774	
4202	0	32738	
4203	0	32748	
4204	0	32740	
4205	0	32762	
4206	0	32864	
4207	0	32772	
4208	0	32775	
4209	0	32802	
4210	0	32775	
4211	0	32824	
4212	0	32888	
4213	0	32849	
4214	0	32740	
4215	0	32866	
4216	0	32844	
4217	0	32762	
4218	0	32802	
4219	0	32846	
4220	0	32792	
4221	0	32830	
4222	0	32952	
4223	0	32826	
4224	0	32800	
4225	0	32938	
4226	0	32903	
4227	0	32749	
4228	0	32821	
4229	0	32637	
4230	0	32736	
4231	0	32630	
4232	0	32596	
4233	0	32644	
4234	0	32642	
4235	0	32630	
4236	0	32647	
4237	0	32685	
4238	0	32656	
4239	0	32754	
4240	0	32784	
4241	0	32796	
4242	0	32826	
4243	0	32666	
4244	0	32804	
4245	0	32793	
4246	0	32769	
4247	0	32756	
4248	0	32813	
4249	0	32856	
4250	0	32672	
4251	0	32588	
4252	0	32667	
4253	0	32824	
4254	0	32775	
4255	0	32562	
4256	0	32694	
4257	0	32724	
4258	0	32802	
4259	0	33371	
4260	0	33358	
4261	0	31711	
4262	0	30504	
4263	0	30484	
4264	0	31746	
4265	0	32521	
4266	0	32716	
4267	0	32912	
4268	0	32952	
4269	0	32992	
4270	0	33056	
4271	0	32936	
4272	0	32860	
4273	0	32974	
4274	0	32848	
4275	0	32882	
4276	0	32975	
4277	0	32880	
4278	0	32940	
4279	0	32952	
4280	0	32938	
4281	0	32834	
4282	0	33026	
4283	0	33060	
4284	0	33079	
4285	0	32996	
4286	0	32903	
4287	0	33044	
4288	0	32967	
4289	0	32834	
4290	0	32810	
4291	0	32808	
4292	0	32835	
4293	0	32832	
4294	0	32886	
4295	0	32812	
4296	0	32803	
4297	0	32729	
4298	0	32769	
4299	0	32674	
4300	0	32647	
4301	0	32754	
4302	0	32560	
4303	0	32704	
4304	0	32720	
4305	0	32644	
4306	0	32714	
4307	0	32687	
4308	0	32700	
4309	0	32556	
4310	0	32506	
4311	0	32722	
4312	0	32788	
4313	0	32711	
4314	0	32704	
4315	0	32680	
4316	0	32652	
4317	0	32658	
4318	0	32707	
4319	0	32538	
4320	0	32668	
4321	0	32739	
4322	0	32710	
4323	0	32600	
4324	0	32634	
4325	0	32736	
4326	0	32824	
4327	0	32864	
4328	0	32698	
4329	0	32820	
4330	0	32790	
4331	0	32669	
4332	0	32752	
4333	0	32756	
4334	0	32768	
4335	0	32827	
4336	0	32887	
4337	0	32826	
4338	0	32920	
4339	0	32846	
4340	0	32738	
4341	0	32740	
4342	0	32624	
4343	0	32840	
4344	0	32740	
4345	0	32668	
4346	0	32666	
4347	0	32675	
4348	0	32766	
4349	0	32696	
4350	0	32664	
4351	0	32764	
4352	0	32720	
4353	0	32940	
4354	0	33490	
4355	0	33195	
4356	0	31435	
4357	0	30492	
4358	0	30866	
4359	0	32058	
4360	0	32784	
4361	0	32912	
4362	0	33018	
4363	0	33038	
4364	0	33056	
4365	0	33180	
4366	0	33188	
4367	0	33168	
4368	0	33196	
4369	0	33164	
4370	0	33067	
4371	0	33260	
4372	0	33132	
4373	0	33088	
4374	0	33030	
4375	0	32985	
4376	0	33053	
4377	0	33104	
4378	0	33192	
4379	0	33144	
4380	0	33192	
4381	0	33203	
4382	0	33138	
4383	0	33089	
4384	0	33136	
4385	0	33120	
4386	0	33136	
4387	0	33120	
4388	0	33152	
4389	0	33127	
4390	0	32949	
4391	0	32992	
4392	0	33021	
4393	0	32937	
4394	0	32960	
4395	0	33040	
4396	0	32948	
4397	0	32936	
4398	0	33027	
4399	0	32932	
4400	0	32924	
4401	0	32864	
4402	0	32876	
4403	0	32984	
4404	0	32932	
4405	0	32848	
4406	0	32864	
4407	0	32944	
4408	0	32960	
4409	0	32839	
4410	0	32881	
4411	0	32712	
4412	0	32910	
4413	0	32878	
4414	0	32813	
4415	0	32804	
4416	0	33050	
4417	0	32876	
4418	0	32696	
4419	0	32682	
4420	0	32804	
4421	0	32658	
4422	0	32732	
4423	0	32762	
4424	0	32827	
4425	0	32681	
4426	0	32792	
4427	0	32904	
4428	0	32893	
4429	0	32775	
4430	0	32792	
4431	0	32760	
4432	0	32820	
4433	0	32788	
4434	0	32848	
4435	0	32819	
4436	0	32981	
4437	0	32822	
4438	0	32732	
4439	0	32708	
4440	0	32710	
4441	0	32760	
4442	0	32805	
4443	0	32854	
4444	0	32806	
4445	0	32720	
4446	0	32784	
4447	0	32858	
4448	0	32845	
4449	0	32850	
4450	0	33470	
4451	0	33650	
4452	0	32984	
4453	0	31374	
4454	0	31546	
4455	0	31708	
4456	0	32668	
4457	0	32814	
4458	0	33236	
4459	0	33204	
4460	0	33151	
4461	0	33222	
4462	0	33158	
4463	0	33309	
4464	0	33439	
4465	0	33258	
4466	0	33339	
4467	0	33448	
4468	0	33316	
4469	0	33232	
4470	0	33144	
4471	0	33188	
4472	0	33281	
4473	0	33351	
4474	0	33328	
4475	0	33576	
4476	0	33484	
4477	0	33386	
4478	0	33526	
4479	0	33440	
4480	0	33447	
4481	0	33378	
4482	0	33256	
4483	0	33287	
4484	0	33392	
4485	0	33244	
4486	0	33124	
4487	0	33149	
4488	0	33251	
4489	0	33120	
4490	0	33024	
4491	0	32965	
4492	0	33018	
4493	0	32816	
4494	0	32860	
4495	0	32764	
4496	0	32668	
4497	0	32562	
4498	0	32696	
4499	0	32512	
4500	0	32336	
4501	0	32480	
4502	0	32614	
4503	0	32379	
4504	0	32130	
4505	0	32020	
4506	0	31922	
4507	0	31621	
4508	0	31180	
4509	0	31125	
4510	0	30814	
4511	0	30912	
4512	0	30830	
4513	0	30832	
4514	0	30928	
4515	0	30939	
4516	0	30712	
4517	0	30697	
4518	0	30450	
4519	0	30780	
4520	0	30940	
4521	0	30726	
4522	0	30930	
4523	0	30904	
4524	0	30808	
4525	0	30569	
4526	0	30834	
4527	0	30424	
4528	0	30694	
4529	0	30032	
4530	0	29935	
4531	0	30215	
4532	0	29744	
4533	0	30128	
4534	0	29639	
4535	0	29502	
4536	0	29757	
4537	0	29898	
4538	0	29940	
4539	0	30211	
4540	0	29970	
4541	0	30242	
4542	0	31312	
4543	0	30829	
4544	0	30395	
4545	0	30120	
4546	0	29298	
4547	0	29748	
4548	0	30268	
4549	0	30540	
4550	0	30662	
4551	0	29560	
4552	0	31175	
4553	0	32568	
4554	0	34164	
4555	0	33464	
4556	0	35088	
4557	0	36434	
4558	0	36626	
4559	0	34848	
4560	0	36358	
4561	0	36498	
4562	0	36512	
4563	0	35714	
4564	0	36561	
4565	0	35242	
4566	0	38151	
4567	0	37920	
4568	0	36416	
4569	0	37465	
4570	0	38177	
4571	0	35640	
4572	0	37918	
4573	0	37802	
4574	0	36740	
4575	0	35298	
4576	0	37132	
4577	0	34668	
4578	0	35472	
4579	0	37476	
4580	0	36300	
4581	0	35024	
4582	0	35275	
4583	0	33510	
4584	0	35111	
4585	0	35436	
4586	0	35234	
4587	0	35936	
4588	0	35550	
4589	0	34529	
4590	0	36090	
4591	0	40012	
4592	0	37278	
4593	0	34620	
4594	0	33152	
4595	0	33328	
4596	0	33942	
4597	0	35640	
4598	0	32609	
4599	0	35353	
4600	0	33661	
4601	0	34208	
4602	0	31792	
4603	0	33638	
4604	0	32876	
4605	0	34418	
4606	0	32466	
4607	0	34024	
4608	0	32881	
4609	0	32984	
4610	0	33117	
4611	0	31848	
4612	0	34823	
4613	0	31879	
4614	0	32890	
4615	0	32854	
4616	0	33762	
4617	0	32730	
4618	0	33716	
4619	0	32516	
4620	0	34064	
4621	0	33927	
4622	0	33490	
4623	0	33863	
4624	0	33713	
4625	0	34000	
4626	0	34277	
4627	0	33479	
4628	0	33520	
4629	0	33594	
4630	0	34293	
4631	0	34276	
4632	0	34878	
4633	0	34348	
4634	0	34608	
4635	0	34934	
4636	0	34928	
4637	0	33397	
4638	0	31712	
4639	0	32748	
4640	0	34047	
4641	0	34311	
4642	0	34372	
4643	0	34600	
4644	0	34865	
4645	0	34600	
4646	0	34852	
4647	0	34920	
4648	0	34916	
4649	0	34748	
4650	0	34843	
4651	0	34600	
4652	0	34296	
4653	0	34311	
4654	0	34388	
4655	0	34556	
4656	0	35662	
4657	0	33968	
4658	0	34935	
4659	0	33346	
4660	0	33517	
4661	0	32956	
4662	0	32844	
4663	0	33087	
4664	0	33028	
4665	0	33120	
4666	0	32804	
4667	0	32698	
4668	0	32436	
4669	0	32200	
4670	0	32320	
4671	0	31716	
4672	0	32234	
4673	0	32552	
4674	0	32333	
4675	0	32336	
4676	0	32404	
4677	0	32320	
4678	0	32476	
4679	0	32296	
4680	0	32474	
4681	0	32165	
4682	0	32112	
4683	0	32110	
4684	0	31955	
4685	0	32284	
4686	0	32180	
4687	0	31736	
4688	0	31866	
4689	0	31846	
4690	0	31858	
4691	0	31680	
4692	0	31444	
4693	0	31385	
4694	0	31303	
4695	0	31174	
4696	0	30940	
4697	0	31364	
4698	0	30876	
4699	0	32230	
4700	0	31640	
4701	0	31988	
4702	0	31597	
4703	0	31388	
4704	0	31022	
4705	0	30087	
4706	0	31017	
4707	0	30698	
4708	0	30620	
4709	0	30762	
4710	0	30987	
4711	0	30642	
4712	0	30836	
4713	0	30436	
4714	0	30472	
4715	0	30451	
4716	0	30534	
4717	0	31056	
4718	0	30940	
4719	0	29912	
4720	0	29560	
4721	0	28966	
4722	0	29460	
4723	0	29883	
4724	0	29784	
4725	0	30137	
4726	0	29638	
4727	0	30182	
4728	0	30132	
4729	0	29258	
4730	0	29402	
4731	0	29326	
4732	0	29273	
4733	0	28637	
4734	0	28789	
4735	0	28550	
4736	0	28418	
4737	0	28514	
4738	0	28860	
4739	0	28190	
4740	0	28660	
4741	0	28290	
4742	0	28377	
4743	0	28679	
4744	0	28761	
4745	0	28893	
4746	0	27284	
4747	0	30498	
4748	0	30826	
4749	0	29928	
4750	0	30677	
4751	0	34470	
4752	0	31348	
4753	0	36291	
4754	0	32704	
4755	0	31187	
4756	0	32640	
4757	0	33996	
4758	0	35207	
4759	0	36498	
4760	0	39524	
4761	0	38528	
4762	0	34997	
4763	0	34792	
4764	0	37929	
4765	0	32504	
4766	0	39114	
4767	0	34578	
4768	0	34044	
4769	0	39048	
4770	0	34556	
4771	0	33666	
4772	0	35636	
4773	0	32976	
4774	0	34474	
4775	0	36743	
4776	0	33644	
4777	0	37580	
4778	0	35184	
4779	0	34352	
4780	0	35664	
4781	0	35948	
4782	0	35378	
4783	0	34426	
4784	0	34182	
4785	0	32680	
4786	0	34141	
4787	0	37432	
4788	0	33773	
4789	0	31910	
4790	0	34452	
4791	0	30726	
4792	0	34945	
4793	0	33027	
4794	0	33156	
4795	0	33360	
4796	0	33148	
4797	0	33513	
4798	0	31361	
4799	0	32105	
4800	0	31840	
4801	0	33764	
4802	0	33356	
4803	0	33364	
4804	0	33721	
4805	0	33730	
4806	0	34013	
4807	0	34101	
4808	0	33778	
4809	0	34501	
4810	0	35295	
4811	0	32573	
4812	0	33960	
4813	0	34576	
4814	0	34437	
4815	0	34624	
4816	0	34740	
4817	0	34626	
4818	0	34706	
4819	0	34871	
4820	0	34940	
4821	0	34400	
4822	0	34624	
4823	0	34767	
4824	0	34460	
4825	0	34208	
4826	0	34074	
4827	0	34000	
4828	0	34338	
4829	0	34102	
4830	0	34127	
4831	0	33939	
4832	0	34308	
4833	0	34053	
4834	0	33740	
4835	0	33648	
4836	0	33632	
4837	0	33439	
4838	0	33732	
4839	0	33526	
4840	0	33563	
4841	0	33506	
4842	0	33438	
4843	0	33216	
4844	0	33240	
4845	0	33031	
4846	0	33029	
4847	0	32948	
4848	0	32903	
4849	0	32673	
4850	0	32688	
4851	0	32604	
4852	0	32621	
4853	0	32464	
4854	0	32511	
4855	0	32427	
4856	0	32583	
4857	0	32430	
4858	0	32548	
4859	0	32524	
4860	0	32454	
4861	0	32400	
4862	0	32647	
4863	0	32594	
4864	0	32672	
4865	0	32701	
4866	0	32738	
4867	0	32632	
4868	0	32426	
4869	0	32296	
4870	0	32248	
4871	0	32208	
4872	0	33238	
4873	0	33101	
4874	0	31540	
4875	0	30612	
4876	0	30790	
4877	0	31913	
4878	0	32562	
4879	0	32489	
4880	0	32536	
4881	0	32410	
4882	0	32647	
4883	0	32520	
4884	0	32560	
4885	0	32472	
4886	0	32557	
4887	0	32239	
4888	0	32466	
4889	0	32402	
4890	0	32400	
4891	0	32231	
4892	0	32224	
4893	0	32049	
4894	0	32253	
4895	0	32087	
4896	0	32213	
4897	0	32121	
4898	0	32137	
4899	0	32112	
4900	0	32144	
4901	0	31960	
4902	0	31804	
4903	0	31805	
4904	0	31852	
4905	0	31808	
4906	0	31832	
4907	0	31796	
4908	0	31772	
4909	0	31746	
4910	0	31818	
4911	0	31866	
4912	0	31968	
4913	0	31920	
4914	0	31960	
4915	0	31928	
4916	0	31943	
4917	0	31872	
4918	0	31975	
4919	0	31890	
4920	0	32123	
4921	0	32005	
4922	0	32108	
4923	0	31978	
4924	0	32128	
4925	0	32056	
4926	0	32040	
4927	0	31974	
4928	0	32012	
4929	0	31989	
4930	0	32096	
4931	0	32071	
4932	0	32184	
4933	0	32252	
4934	0	32283	
4935	0	32326	
4936	0	32408	
4937	0	32308	
4938	0	32260	
4939	0	32333	
4940	0	32367	
4941	0	32236	
4942	0	32644	
4943	0	32602	
4944	0	32644	
4945	0	32728	
4946	0	33004	
4947	0	32848	
4948	0	32833	
4949	0	32856	
4950	0	33444	
4951	0	33548	
4952	0	32826	
4953	0	30888	
4954	0	30884	
4955	0	31230	
4956	0	32648	
4957	0	33031	
4958	0	33380	
4959	0	33234	
4960	0	33415	
4961	0	33444	
4962	0	33656	
4963	0	33543	
4964	0	33568	
4965	0	33400	
4966	0	33545	
4967	0	33470	
4968	0	33603	
4969	0	33421	
4970	0	33536	
4971	0	33511	
4972	0	33473	
4973	0	33490	
4974	0	33530	
4975	0	33444	
4976	0	33444	
4977	0	33159	
4978	0	33188	
4979	0	33058	
4980	0	32881	
4981	0	32775	
4982	0	32753	
4983	0	32824	
4984	0	32763	
4985	0	32712	
4986	0	32745	
4987	0	32740	
4988	0	32712	
4989	0	32612	
4990	0	32642	
4991	0	32558	
4992	0	32588	
4993	0	32508	
4994	0	32549	
4995	0	32496	
4996	0	32550	
4997	0	32488	
4998	0	32580	
4999	0	32538	
5000	0	32610	
5001	0	32460	
5002	0	32466	
5003	0	32292	
5004	0	32480	
5005	0	32400	
5006	0	32448	
5007	0	32360	
5008	0	32466	
5009	0	32402	
5010	0	32492	
5011	0	32411	
5012	0	32396	
5013	0	32410	
5014	0	32552	
5015	0	32380	
5016	0	32569	
5017	0	32491	
5018	0	32493	
5019	0	32541	
5020	0	32582	
5021	0	32423	
5022	0	32520	
5023	0	32384	
5024	0	32444	
5025	0	32236	
5026	0	32230	
5027	0	32225	
5028	0	32376	
5029	0	32171	
5030	0	32338	
5031	0	32263	
5032	0	32391	
5033	0	32368	
5034	0	32566	
5035	0	32701	
5036	0	33313	
5037	0	32826	
5038	0	31098	
5039	0	30390	
5040	0	30674	
5041	0	31904	
5042	0	32632	
5043	0	32676	
5044	0	32982	
5045	0	32994	
5046	0	32834	
5047	0	32875	
5048	0	32796	
5049	0	32775	
5050	0	32752	
5051	0	32858	
5052	0	32856	
5053	0	32713	
5054	0	32769	
5055	0	32775	
5056	0	32931	
5057	0	32800	
5058	0	32772	
5059	0	32668	
5060	0	32900	
5061	0	32906	
5062	0	32928	
5063	0	32738	
5064	0	32714	
5065	0	32669	
5066	0	32706	
5067	0	32597	
5068	0	32617	
5069	0	32459	
