# OpenSignals Text File Format
# {"00:07:80:3B:46:38": {"sensor": ["XYZ", "XYZ", "XYZ"], "device name": "00:07:80:3B:46:38", "column": ["nSeq", "DI", "Z", "Y", "X"], "sync interval": 2, "time": "12:29:38.252", "comments": "", "device connection": "BTH00:07:80:3B:46:38", "channels": [5, 6, 7], "keywords": "", "digital IO": [0, 1], "mode": 0, "date": "2017-9-19", "firmware version": 772, "device": "biosignalsplux", "position": 0, "sampling rate": 1000, "label": ["Z", "Y", "X"], "resolution": [16, 16, 16], "forcePlatform values": [0.0, 0.0, 0.0, 0.0, 0.0, 0.0, 0.0, 0.0], "special": [{}, {}, {}]}}
# EndOfHeader
0	0	37794	33180	32775	
1	0	37776	33198	32767	
2	0	37780	33189	32769	
3	0	37764	33194	32769	
4	0	37774	33188	32775	
5	0	37767	33211	32774	
6	0	37784	33206	32772	
7	0	37778	33209	32765	
8	0	37767	33200	32766	
9	0	37752	33191	32769	
10	0	37740	33193	32767	
11	0	37696	33197	32752	
12	0	37714	33197	32760	
13	0	37729	33192	32766	
14	0	37725	33190	32769	
15	0	37728	33192	32759	
16	0	37725	33201	32775	
17	0	37728	33214	32768	
18	0	37717	33209	32769	
19	0	37712	33212	32759	
20	0	37706	33206	32771	
21	0	37712	33218	32766	
22	0	37714	33234	32764	
23	0	37712	33222	32774	
24	0	37708	33223	32754	
25	0	37720	33234	32754	
26	0	37704	33223	32758	
27	0	37704	33223	32742	
28	0	37724	33218	32734	
29	0	37736	33212	32740	
30	0	37740	33223	32724	
31	0	37738	33227	32706	
32	0	37748	33222	32718	
33	0	37748	33213	32709	
34	0	37767	33223	32698	
35	0	37752	33215	32695	
36	0	37744	33216	32697	
37	0	37760	33215	32691	
38	0	37784	33216	32692	
39	0	37794	33204	32703	
40	0	37794	33222	32699	
41	0	37794	33223	32696	
42	0	37776	33220	32698	
43	0	37784	33229	32711	
44	0	37790	33232	32720	
45	0	37792	33223	32733	
46	0	37776	33223	32749	
47	0	37764	33230	32771	
48	0	37766	33223	32756	
49	0	37768	33223	32775	
50	0	37778	33223	32775	
51	0	37780	33230	32775	
52	0	37776	33220	32785	
53	0	37774	33218	32800	
54	0	37767	33220	32800	
55	0	37766	33206	32806	
56	0	37762	33199	32822	
57	0	37760	33202	32814	
58	0	37746	33199	32822	
59	0	37744	33195	32831	
60	0	37708	33213	32828	
61	0	37690	33206	32823	
62	0	37688	33208	32838	
63	0	37692	33194	32852	
64	0	37680	33206	32842	
65	0	37672	33218	32831	
66	0	37672	33222	32837	
67	0	37644	33213	32839	
68	0	37620	33215	32840	
69	0	37620	33208	32850	
70	0	37624	33202	32847	
71	0	37624	33207	32850	
72	0	37628	33220	32851	
73	0	37605	33218	32841	
74	0	37604	33227	32854	
75	0	37596	33239	32848	
76	0	37600	33237	32851	
77	0	37593	33238	32860	
78	0	37612	33230	32854	
79	0	37616	33226	32844	
80	0	37600	33231	32831	
81	0	37604	33223	32846	
82	0	37606	33220	32844	
83	0	37609	33223	32846	
84	0	37616	33215	32842	
85	0	37608	33223	32837	
86	0	37612	33223	32834	
87	0	37632	33212	32832	
88	0	37600	33211	32830	
89	0	37592	33217	32820	
90	0	37608	33223	32806	
91	0	37608	33220	32796	
92	0	37626	33210	32775	
93	0	37618	33232	32764	
94	0	37632	33230	32754	
95	0	37612	33223	32742	
96	0	37613	33226	32739	
97	0	37636	33222	32720	
98	0	37632	33220	32717	
99	0	37642	33223	32717	
100	0	37620	33227	32730	
101	0	37620	33223	32740	
102	0	37636	33220	32747	
103	0	37652	33217	32751	
104	0	37649	33209	32750	
105	0	37670	33212	32759	
106	0	37682	33209	32771	
107	0	37680	33215	32768	
108	0	37684	33212	32766	
109	0	37696	33220	32772	
110	0	37668	33214	32791	
111	0	37684	33209	32789	
112	0	37672	33218	32789	
113	0	37678	33223	32795	
114	0	37656	33228	32791	
115	0	37664	33222	32775	
116	0	37696	33223	32790	
117	0	37704	33223	32794	
118	0	37702	33237	32787	
119	0	37702	33234	32784	
120	0	37688	33223	32790	
121	0	37688	33222	32775	
122	0	37693	33216	32775	
123	0	37676	33223	32775	
124	0	37690	33238	32775	
125	0	37696	33223	32791	
126	0	37688	33220	32775	
127	0	37708	33223	32790	
128	0	37728	33234	32793	
129	0	37688	33222	32810	
130	0	37688	33218	32816	
131	0	37704	33229	32820	
132	0	37713	33227	32818	
133	0	37724	33222	32824	
134	0	37706	33212	32828	
135	0	37712	33202	32827	
136	0	37712	33206	32822	
137	0	37690	33206	32826	
138	0	37698	33222	32811	
139	0	37696	33223	32811	
140	0	37704	33212	32808	
141	0	37664	33214	32814	
142	0	37668	33211	32824	
143	0	37652	33216	32827	
144	0	37684	33213	32811	
145	0	37689	33214	32814	
146	0	37702	33220	32796	
147	0	37718	33215	32793	
148	0	37732	33218	32794	
149	0	37720	33220	32799	
150	0	37696	33220	32775	
151	0	37704	33231	32775	
152	0	37712	33232	32775	
153	0	37728	33252	32763	
154	0	37740	33245	32752	
155	0	37738	33243	32751	
156	0	37736	33223	32745	
157	0	37730	33217	32758	
158	0	37748	33223	32748	
159	0	37736	33223	32754	
160	0	37720	33216	32760	
161	0	37736	33214	32768	
162	0	37732	33206	32760	
163	0	37744	33216	32756	
164	0	37738	33213	32747	
165	0	37728	33213	32752	
166	0	37732	33215	32749	
167	0	37736	33215	32733	
168	0	37742	33214	32739	
169	0	37727	33216	32730	
170	0	37690	33228	32720	
171	0	37690	33213	32725	
172	0	37686	33213	32720	
173	0	37684	33218	32711	
174	0	37684	33214	32702	
175	0	37684	33223	32696	
176	0	37688	33221	32699	
177	0	37688	33223	32700	
178	0	37712	33220	32708	
179	0	37698	33210	32716	
180	0	37700	33208	32731	
181	0	37706	33202	32752	
182	0	37692	33210	32752	
183	0	37673	33210	32754	
184	0	37676	33220	32764	
185	0	37670	33205	32773	
186	0	37666	33209	32775	
187	0	37668	33199	32796	
188	0	37664	33192	32803	
189	0	37664	33217	32797	
190	0	37676	33219	32792	
191	0	37682	33223	32775	
192	0	37660	33220	32775	
193	0	37672	33218	32794	
194	0	37664	33212	32775	
195	0	37654	33223	32775	
196	0	37680	33212	32775	
197	0	37688	33218	32790	
198	0	37692	33216	32788	
199	0	37696	33216	32790	
200	0	37688	33212	32796	
201	0	37688	33217	32807	
202	0	37684	33220	32807	
203	0	37696	33206	32818	
204	0	37676	33199	32832	
205	0	37640	33210	32832	
206	0	37636	33222	32839	
207	0	37644	33232	32852	
208	0	37632	33223	32856	
209	0	37636	33223	32866	
210	0	37656	33223	32863	
211	0	37664	33230	32868	
212	0	37680	33214	32886	
213	0	37686	33223	32888	
214	0	37676	33223	32903	
215	0	37696	33223	32914	
216	0	37698	33213	32903	
217	0	37680	33220	32895	
218	0	37690	33222	32884	
219	0	37696	33228	32880	
220	0	37676	33239	32887	
221	0	37676	33223	32871	
222	0	37688	33234	32868	
223	0	37664	33234	32864	
224	0	37684	33223	32855	
225	0	37664	33226	32850	
226	0	37642	33222	32839	
227	0	37660	33223	32851	
228	0	37656	33212	32853	
229	0	37660	33209	32856	
230	0	37661	33197	32842	
231	0	37660	33198	32839	
232	0	37684	33187	32839	
233	0	37673	33184	32826	
234	0	37640	33204	32818	
235	0	37640	33193	32822	
236	0	37648	33192	32836	
237	0	37658	33196	32839	
238	0	37664	33202	32848	
239	0	37670	33203	32863	
240	0	37684	33204	32858	
241	0	37692	33207	32850	
242	0	37688	33214	32846	
243	0	37700	33202	32864	
244	0	37692	33197	32870	
245	0	37702	33204	32868	
246	0	37703	33199	32864	
247	0	37720	33207	32856	
248	0	37732	33206	32848	
249	0	37732	33209	32847	
250	0	37732	33213	32839	
251	0	37726	33223	32810	
252	0	37724	33222	32819	
253	0	37720	33211	32807	
254	0	37726	33223	32786	
255	0	37713	33235	32774	
256	0	37737	33226	32764	
257	0	37764	33223	32756	
258	0	37772	33232	32747	
259	0	37760	33242	32736	
260	0	37756	33239	32732	
261	0	37768	33248	32720	
262	0	37767	33245	32711	
263	0	37794	33239	32696	
264	0	37784	33235	32705	
265	0	37767	33240	32700	
266	0	37776	33229	32694	
267	0	37784	33234	32692	
268	0	37816	33241	32699	
269	0	37816	33239	32710	
270	0	37824	33234	32696	
271	0	37840	33231	32706	
272	0	37846	33230	32708	
273	0	37856	33241	32696	
274	0	37872	33234	32696	
275	0	37858	33234	32706	
276	0	37850	33236	32706	
277	0	37829	33235	32690	
278	0	37824	33241	32681	
279	0	37800	33238	32658	
280	0	37784	33244	32647	
281	0	37742	33251	32635	
282	0	37720	33235	32640	
283	0	37688	33256	32626	
284	0	37671	33255	32609	
285	0	37632	33251	32586	
286	0	37606	33254	32586	
287	0	37601	33261	32574	
288	0	37572	33259	32569	
289	0	37572	33255	32552	
290	0	37568	33239	32559	
291	0	37562	33236	32560	
292	0	37546	33230	32529	
293	0	37568	33234	32519	
294	0	37554	33243	32500	
295	0	37560	33238	32487	
296	0	37596	33240	32469	
297	0	37618	33223	32464	
298	0	37648	33238	32446	
299	0	37664	33245	32432	
300	0	37664	33228	32431	
301	0	37686	33232	32415	
302	0	37696	33234	32410	
303	0	37712	33243	32396	
304	0	37704	33251	32391	
305	0	37724	33254	32415	
306	0	37756	33262	32414	
307	0	37732	33279	32416	
308	0	37671	33270	32383	
309	0	37548	33277	32324	
310	0	37465	33307	32263	
311	0	37548	33306	32247	
312	0	37656	33318	32239	
313	0	37676	33319	32237	
314	0	37794	33287	32230	
315	0	37895	33271	32256	
316	0	37950	33250	32296	
317	0	38020	33217	32364	
318	0	38064	33200	32442	
319	0	38072	33190	32511	
320	0	38128	33181	32582	
321	0	38116	33186	32635	
322	0	38084	33189	32686	
323	0	38088	33186	32719	
324	0	38072	33181	32748	
325	0	38044	33190	32775	
326	0	38064	33193	32793	
327	0	38040	33201	32815	
328	0	38000	33204	32802	
329	0	37988	33214	32801	
330	0	37948	33208	32806	
331	0	37904	33199	32808	
332	0	37876	33188	32818	
333	0	37856	33199	32827	
334	0	37808	33200	32851	
335	0	37776	33181	32881	
336	0	37767	33187	32893	
337	0	37732	33178	32935	
338	0	37700	33164	32966	
339	0	37696	33155	32984	
340	0	37666	33146	33026	
341	0	37632	33138	33062	
342	0	37584	33127	33090	
343	0	37568	33122	33125	
344	0	37568	33127	33159	
345	0	37552	33118	33190	
346	0	37548	33134	33188	
347	0	37564	33131	33200	
348	0	37552	33144	33204	
349	0	37554	33148	33207	
350	0	37572	33138	33198	
351	0	37576	33142	33192	
352	0	37564	33142	33190	
353	0	37565	33154	33189	
354	0	37584	33146	33180	
355	0	37584	33154	33166	
356	0	37564	33159	33150	
357	0	37564	33178	33126	
358	0	37586	33170	33115	
359	0	37606	33174	33088	
360	0	37624	33176	33058	
361	0	37640	33195	33036	
362	0	37672	33212	33008	
363	0	37676	33208	32982	
364	0	37686	33220	32958	
365	0	37720	33218	32919	
366	0	37728	33226	32877	
367	0	37736	33228	32859	
368	0	37728	33223	32842	
369	0	37736	33232	32820	
370	0	37744	33223	32816	
371	0	37720	33228	32796	
372	0	37712	33228	32769	
373	0	37722	33222	32759	
374	0	37712	33234	32752	
375	0	37718	33240	32715	
376	0	37721	33231	32690	
377	0	37744	33223	32679	
378	0	37738	33206	32679	
379	0	37732	33215	32656	
380	0	37712	33223	32636	
381	0	37696	33213	32635	
382	0	37688	33216	32612	
383	0	37681	33209	32583	
384	0	37704	33210	32564	
385	0	37748	33219	32554	
386	0	37778	33212	32546	
387	0	37796	33206	32528	
388	0	37796	33206	32535	
389	0	37812	33204	32539	
390	0	37822	33210	32544	
391	0	37828	33223	32572	
392	0	37828	33254	32600	
393	0	37836	33258	32623	
394	0	37824	33276	32658	
395	0	37820	33268	32679	
396	0	37808	33287	32692	
397	0	37808	33287	32705	
398	0	37826	33316	32696	
399	0	37796	33307	32696	
400	0	37788	33287	32706	
401	0	37808	33285	32706	
402	0	37794	33287	32710	
403	0	37796	33287	32698	
404	0	37808	33259	32700	
405	0	37808	33264	32704	
406	0	37808	33263	32704	
407	0	37800	33262	32690	
408	0	37804	33245	32681	
409	0	37776	33250	32666	
410	0	37746	33258	32655	
411	0	37752	33255	32646	
412	0	37760	33240	32647	
413	0	37752	33242	32655	
414	0	37748	33236	32655	
415	0	37756	33247	32654	
416	0	37748	33242	32647	
417	0	37758	33234	32667	
418	0	37744	33236	32666	
419	0	37730	33247	32671	
420	0	37764	33247	32684	
421	0	37767	33261	32703	
422	0	37750	33255	32720	
423	0	37752	33265	32736	
424	0	37752	33274	32762	
425	0	37752	33282	32765	
426	0	37756	33283	32768	
427	0	37732	33287	32793	
428	0	37720	33283	32824	
429	0	37712	33287	32830	
430	0	37688	33287	32824	
431	0	37673	33287	32805	
432	0	37660	33308	32808	
433	0	37660	33287	32806	
434	0	37664	33287	32800	
435	0	37654	33287	32794	
436	0	37652	33286	32775	
437	0	37648	33287	32764	
438	0	37624	33306	32754	
439	0	37592	33303	32752	
440	0	37596	33287	32743	
441	0	37574	33287	32738	
442	0	37560	33311	32725	
443	0	37548	33310	32722	
444	0	37560	33317	32725	
445	0	37540	33318	32725	
446	0	37536	33321	32750	
447	0	37552	33333	32752	
448	0	37557	33340	32775	
449	0	37586	33351	32806	
450	0	37600	33355	32850	
451	0	37650	33334	32882	
452	0	37660	33317	32898	
453	0	37676	33287	32882	
454	0	37700	33287	32862	
455	0	37666	33281	32831	
456	0	37658	33274	32792	
457	0	37688	33287	32754	
458	0	37668	33287	32730	
459	0	37668	33287	32694	
460	0	37686	33299	32656	
461	0	37668	33305	32621	
462	0	37682	33318	32600	
463	0	37669	33324	32582	
464	0	37660	33319	32564	
465	0	37654	33331	32551	
466	0	37659	33332	32554	
467	0	37644	33319	32571	
468	0	37604	33314	32567	
469	0	37624	33326	32566	
470	0	37600	33324	32557	
471	0	37610	33325	32551	
472	0	37628	33339	32538	
473	0	37650	33344	32504	
474	0	37656	33342	32496	
475	0	37696	33362	32443	
476	0	37656	33384	32382	
477	0	37650	33383	32346	
478	0	37645	33380	32296	
479	0	37606	33383	32243	
480	0	37568	33408	32199	
481	0	37565	33392	32194	
482	0	37562	33390	32210	
483	0	37566	33376	32208	
484	0	37570	33375	32207	
485	0	37558	33370	32160	
486	0	37520	33370	32152	
487	0	37524	33367	32135	
488	0	37528	33360	32130	
489	0	37511	33351	32143	
490	0	37536	33346	32167	
491	0	37520	33316	32207	
492	0	37536	33315	32263	
493	0	37536	33287	32289	
494	0	37549	33299	32324	
495	0	37545	33287	32367	
496	0	37554	33287	32391	
497	0	37561	33278	32452	
498	0	37588	33287	32494	
499	0	37604	33299	32528	
500	0	37608	33309	32553	
501	0	37612	33310	32592	
502	0	37648	33311	32631	
503	0	37664	33304	32691	
504	0	37714	33298	32756	
505	0	37767	33303	32813	
506	0	37800	33287	32864	
507	0	37810	33287	32909	
508	0	37833	33283	32950	
509	0	37879	33274	32996	
510	0	37872	33281	33049	
511	0	37888	33272	33095	
512	0	37916	33272	33136	
513	0	37944	33250	33209	
514	0	37944	33223	33314	
515	0	37936	33185	33437	
516	0	37895	33132	33583	
517	0	37888	33094	33742	
518	0	37856	33058	33958	
519	0	37892	33048	34109	
520	0	37956	33083	34246	
521	0	37906	33125	34311	
522	0	37920	33180	34355	
523	0	37940	33202	34340	
524	0	37848	33250	34300	
525	0	37826	33267	34247	
526	0	37784	33304	34169	
527	0	37756	33349	34068	
528	0	37732	33379	33964	
529	0	37712	33395	33844	
530	0	37704	33438	33700	
531	0	37666	33458	33560	
532	0	37648	33456	33410	
533	0	37620	33460	33268	
534	0	37592	33458	33129	
535	0	37601	33453	32987	
536	0	37552	33436	32853	
537	0	37552	33402	32726	
538	0	37540	33388	32604	
539	0	37511	33357	32492	
540	0	37480	33332	32391	
541	0	37472	33319	32282	
542	0	37456	33286	32207	
543	0	37462	33281	32132	
544	0	37472	33274	32090	
545	0	37476	33262	32056	
546	0	37472	33267	32038	
547	0	37478	33267	32050	
548	0	37494	33258	32067	
549	0	37524	33261	32087	
550	0	37554	33274	32115	
551	0	37572	33311	32154	
552	0	37604	33318	32199	
553	0	37640	33320	32263	
554	0	37660	33330	32322	
555	0	37661	33359	32378	
556	0	37690	33366	32424	
557	0	37712	33374	32484	
558	0	37724	33384	32540	
559	0	37704	33391	32578	
560	0	37692	33391	32618	
561	0	37700	33398	32662	
562	0	37704	33388	32702	
563	0	37687	33381	32730	
564	0	37692	33373	32754	
565	0	37664	33351	32775	
566	0	37650	33344	32814	
567	0	37640	33334	32836	
568	0	37640	33324	32851	
569	0	37624	33308	32874	
570	0	37624	33285	32910	
571	0	37612	33287	32926	
572	0	37564	33285	32936	
573	0	37556	33271	32956	
574	0	37560	33266	32987	
575	0	37534	33255	33006	
576	0	37540	33241	33034	
577	0	37545	33234	33050	
578	0	37545	33239	33068	
579	0	37548	33241	33076	
580	0	37544	33254	33072	
581	0	37524	33258	33076	
582	0	37532	33254	33066	
583	0	37540	33256	33071	
584	0	37536	33261	33073	
585	0	37554	33274	33072	
586	0	37572	33278	33066	
587	0	37590	33279	33043	
588	0	37581	33268	33047	
589	0	37568	33275	33027	
590	0	37584	33281	33019	
591	0	37572	33281	33005	
592	0	37568	33270	32992	
593	0	37588	33281	32964	
594	0	37620	33287	32940	
595	0	37612	33287	32927	
596	0	37604	33287	32899	
597	0	37652	33287	32863	
598	0	37660	33298	32838	
599	0	37672	33286	32823	
600	0	37684	33287	32806	
601	0	37702	33287	32793	
602	0	37712	33303	32775	
603	0	37748	33304	32768	
604	0	37736	33310	32772	
605	0	37750	33316	32762	
606	0	37772	33323	32762	
607	0	37796	33330	32768	
608	0	37804	33341	32768	
609	0	37800	33351	32763	
610	0	37804	33350	32774	
611	0	37808	33351	32775	
612	0	37826	33351	32775	
613	0	37794	33342	32775	
614	0	37767	33346	32786	
615	0	37752	33351	32769	
616	0	37752	33345	32775	
617	0	37764	33340	32787	
618	0	37764	33339	32775	
619	0	37744	33334	32797	
620	0	37754	33339	32799	
621	0	37738	33324	32823	
622	0	37712	33322	32813	
623	0	37696	33335	32816	
624	0	37692	33329	32820	
625	0	37660	33321	32824	
626	0	37644	33327	32816	
627	0	37656	33319	32827	
628	0	37640	33319	32808	
629	0	37648	33308	32808	
630	0	37668	33312	32800	
631	0	37652	33298	32806	
632	0	37668	33302	32822	
633	0	37700	33319	32816	
634	0	37682	33303	32833	
635	0	37660	33310	32824	
636	0	37632	33304	32831	
637	0	37636	33314	32832	
638	0	37624	33314	32852	
639	0	37616	33319	32858	
640	0	37608	33315	32848	
641	0	37628	33318	32858	
642	0	37616	33309	32863	
643	0	37601	33319	32870	
644	0	37600	33320	32885	
645	0	37596	33324	32882	
646	0	37592	33316	32886	
647	0	37584	33326	32877	
648	0	37586	33334	32864	
649	0	37594	33337	32870	
650	0	37612	33347	32875	
651	0	37617	33334	32874	
652	0	37620	33324	32887	
653	0	37636	33330	32879	
654	0	37622	33330	32877	
655	0	37648	33335	32869	
656	0	37676	33336	32868	
657	0	37688	33334	32876	
658	0	37680	33346	32858	
659	0	37706	33345	32839	
660	0	37726	33345	32839	
661	0	37732	33342	32839	
662	0	37732	33350	32818	
663	0	37740	33378	32796	
664	0	37756	33357	32795	
665	0	37767	33356	32775	
666	0	37772	33362	32771	
667	0	37767	33366	32759	
668	0	37742	33358	32754	
669	0	37760	33362	32746	
670	0	37756	33364	32739	
671	0	37764	33348	32746	
672	0	37773	33342	32748	
673	0	37790	33327	32759	
674	0	37766	33327	32756	
675	0	37776	33317	32755	
676	0	37798	33309	32771	
677	0	37802	33304	32762	
678	0	37796	33281	32775	
679	0	37804	33287	32775	
680	0	37800	33285	32800	
681	0	37792	33281	32816	
682	0	37800	33287	32836	
683	0	37816	33282	32848	
684	0	37806	33274	32862	
685	0	37810	33271	32868	
686	0	37810	33274	32887	
687	0	37820	33275	32903	
688	0	37794	33278	32918	
689	0	37794	33283	32930	
690	0	37798	33287	32942	
691	0	37768	33287	32967	
692	0	37749	33302	32963	
693	0	37730	33287	32976	
694	0	37726	33300	32998	
695	0	37718	33281	33008	
696	0	37704	33282	33012	
697	0	37670	33275	33024	
698	0	37668	33283	33022	
699	0	37660	33283	33010	
700	0	37632	33287	32999	
701	0	37640	33287	32999	
702	0	37628	33287	33012	
703	0	37621	33287	33019	
704	0	37616	33287	33007	
705	0	37588	33279	33012	
706	0	37604	33275	33010	
707	0	37607	33284	32972	
708	0	37612	33285	32946	
709	0	37616	33275	32944	
710	0	37632	33275	32935	
711	0	37648	33284	32926	
712	0	37620	33270	32924	
713	0	37624	33257	32921	
714	0	37608	33261	32916	
715	0	37607	33268	32903	
716	0	37600	33269	32912	
717	0	37584	33274	32925	
718	0	37586	33287	32928	
719	0	37584	33283	32927	
720	0	37600	33287	32928	
721	0	37608	33287	32946	
722	0	37568	33287	32967	
723	0	37544	33302	32970	
724	0	37544	33287	32987	
725	0	37530	33307	32995	
726	0	37528	33313	32997	
727	0	37520	33318	32992	
728	0	37511	33316	32988	
729	0	37496	33319	32978	
730	0	37506	33322	32979	
731	0	37491	33319	32967	
732	0	37490	33335	32960	
733	0	37504	33325	32952	
734	0	37504	33317	32952	
735	0	37500	33318	32936	
736	0	37498	33330	32932	
737	0	37500	33328	32924	
738	0	37536	33320	32920	
739	0	37488	33324	32903	
740	0	37478	33336	32895	
741	0	37466	33338	32866	
742	0	37488	33351	32861	
743	0	37484	33351	32810	
744	0	37494	33376	32762	
745	0	37508	33383	32717	
746	0	37516	33375	32682	
747	0	37516	33387	32658	
748	0	37522	33384	32654	
749	0	37524	33383	32646	
750	0	37556	33367	32664	
751	0	37568	33351	32666	
752	0	37592	33319	32677	
753	0	37620	33302	32690	
754	0	37634	33287	32711	
755	0	37668	33278	32738	
756	0	37680	33270	32754	
757	0	37700	33260	32775	
758	0	37707	33269	32792	
759	0	37730	33256	32806	
760	0	37736	33277	32839	
761	0	37790	33272	32850	
762	0	37784	33287	32870	
763	0	37784	33287	32910	
764	0	37796	33287	32920	
765	0	37794	33306	32937	
766	0	37810	33325	32935	
767	0	37800	33328	32945	
768	0	37794	33344	32942	
769	0	37796	33335	32946	
770	0	37806	33342	32945	
771	0	37820	33336	32944	
772	0	37780	33351	32920	
773	0	37806	33348	32920	
774	0	37780	33338	32914	
775	0	37784	33338	32898	
776	0	37772	33330	32878	
777	0	37768	33329	32864	
778	0	37744	33318	32861	
779	0	37752	33322	32847	
780	0	37740	33306	32836	
781	0	37732	33306	32847	
782	0	37742	33302	32840	
783	0	37718	33302	32827	
784	0	37736	33287	32825	
785	0	37732	33280	32828	
786	0	37744	33287	32810	
787	0	37740	33285	32831	
788	0	37752	33281	32826	
789	0	37766	33278	32834	
790	0	37764	33287	32825	
791	0	37782	33302	32820	
792	0	37788	33287	32826	
793	0	37800	33300	32815	
794	0	37804	33287	32824	
795	0	37820	33287	32838	
796	0	37814	33285	32818	
797	0	37808	33285	32832	
798	0	37814	33287	32826	
799	0	37833	33287	32816	
800	0	37850	33287	32824	
801	0	37876	33274	32838	
802	0	37876	33303	32822	
803	0	37868	33280	32830	
804	0	37844	33280	32832	
805	0	37850	33267	32846	
806	0	37868	33273	32846	
807	0	37866	33272	32854	
808	0	37860	33280	32852	
809	0	37840	33276	32844	
810	0	37826	33281	32841	
811	0	37814	33287	32832	
812	0	37816	33287	32834	
813	0	37792	33287	32820	
814	0	37780	33287	32817	
815	0	37767	33315	32811	
816	0	37778	33305	32812	
817	0	37764	33325	32814	
818	0	37738	33315	32812	
819	0	37732	33313	32796	
820	0	37732	33321	32790	
821	0	37724	33313	32787	
822	0	37696	33320	32775	
823	0	37672	33322	32775	
824	0	37673	33328	32774	
825	0	37684	33322	32775	
826	0	37682	33320	32763	
827	0	37672	33321	32767	
828	0	37660	33318	32762	
829	0	37666	33314	32767	
830	0	37672	33314	32775	
831	0	37668	33312	32775	
832	0	37657	33317	32759	
833	0	37640	33319	32760	
834	0	37662	33315	32754	
835	0	37664	33316	32772	
836	0	37664	33318	32765	
837	0	37656	33318	32770	
838	0	37676	33316	32775	
839	0	37656	33321	32775	
840	0	37668	33330	32775	
841	0	37664	33347	32764	
842	0	37664	33342	32766	
843	0	37661	33344	32751	
844	0	37678	33346	32742	
845	0	37672	33371	32728	
846	0	37668	33361	32720	
847	0	37668	33370	32711	
848	0	37648	33383	32704	
849	0	37644	33376	32703	
850	0	37642	33376	32706	
851	0	37656	33378	32705	
852	0	37669	33375	32710	
853	0	37688	33370	32698	
854	0	37700	33367	32696	
855	0	37706	33371	32684	
856	0	37700	33370	32684	
857	0	37700	33364	32680	
858	0	37704	33363	32680	
859	0	37700	33366	32684	
860	0	37696	33369	32681	
861	0	37684	33368	32687	
862	0	37676	33369	32690	
863	0	37702	33367	32692	
864	0	37718	33348	32703	
865	0	37732	33337	32702	
866	0	37736	33335	32711	
867	0	37720	33328	32711	
868	0	37704	33335	32710	
869	0	37696	33333	32713	
870	0	37703	33345	32728	
871	0	37724	33351	32740	
872	0	37736	33351	32756	
873	0	37726	33361	32754	
874	0	37712	33360	32761	
875	0	37714	33360	32775	
876	0	37700	33366	32792	
877	0	37706	33368	32793	
878	0	37682	33386	32794	
879	0	37700	33397	32799	
880	0	37708	33392	32804	
881	0	37696	33378	32812	
882	0	37692	33399	32810	
883	0	37707	33384	32805	
884	0	37736	33382	32804	
885	0	37756	33380	32826	
886	0	37748	33377	32826	
887	0	37778	33370	32823	
888	0	37767	33378	32823	
889	0	37794	33360	32824	
890	0	37796	33350	32819	
891	0	37770	33346	32826	
892	0	37789	33339	32838	
893	0	37776	33327	32832	
894	0	37784	33336	32823	
895	0	37766	33346	32819	
896	0	37754	33359	32812	
897	0	37732	33354	32816	
898	0	37716	33351	32834	
899	0	37706	33352	32839	
900	0	37715	33344	32839	
901	0	37690	33338	32844	
902	0	37684	33342	32838	
903	0	37672	33344	32847	
904	0	37637	33340	32847	
905	0	37620	33342	32856	
906	0	37622	33348	32856	
907	0	37620	33351	32850	
908	0	37594	33344	32857	
909	0	37578	33344	32870	
910	0	37562	33351	32866	
911	0	37536	33355	32856	
912	0	37525	33351	32875	
913	0	37520	33344	32871	
914	0	37528	33338	32878	
915	0	37494	33356	32868	
916	0	37496	33351	32870	
917	0	37498	33358	32866	
918	0	37474	33340	32859	
919	0	37440	33351	32839	
920	0	37424	33360	32834	
921	0	37408	33351	32827	
922	0	37414	33350	32829	
923	0	37383	33344	32834	
924	0	37383	33340	32832	
925	0	37383	33358	32812	
926	0	37388	33360	32809	
927	0	37396	33358	32808	
928	0	37396	33363	32806	
929	0	37376	33365	32810	
930	0	37382	33366	32812	
931	0	37370	33360	32804	
932	0	37412	33375	32798	
933	0	37426	33368	32797	
934	0	37434	33351	32787	
935	0	37424	33359	32810	
936	0	37436	33354	32807	
937	0	37424	33351	32813	
938	0	37436	33342	32816	
939	0	37454	33346	32833	
940	0	37480	33334	32847	
941	0	37476	33333	32842	
942	0	37496	33320	32855	
943	0	37486	33320	32858	
944	0	37492	33324	32859	
945	0	37510	33321	32864	
946	0	37516	33318	32858	
947	0	37532	33316	32871	
948	0	37554	33316	32870	
949	0	37564	33327	32868	
950	0	37565	33319	32877	
951	0	37576	33312	32887	
952	0	37594	33316	32888	
953	0	37608	33327	32893	
954	0	37624	33322	32903	
955	0	37624	33312	32915	
956	0	37642	33314	32916	
957	0	37653	33302	32903	
958	0	37668	33302	32918	
959	0	37672	33316	32903	
960	0	37698	33327	32900	
961	0	37712	33327	32898	
962	0	37720	33312	32888	
963	0	37738	33306	32901	
964	0	37758	33307	32898	
965	0	37744	33303	32892	
966	0	37767	33306	32872	
967	0	37756	33325	32861	
968	0	37751	33315	32849	
969	0	37744	33308	32835	
970	0	37766	33318	32836	
971	0	37780	33322	32822	
972	0	37796	33319	32806	
973	0	37792	33318	32788	
974	0	37812	33314	32775	
975	0	37816	33314	32759	
976	0	37830	33310	32748	
977	0	37829	33314	32748	
978	0	37824	33287	32738	
979	0	37804	33287	32732	
980	0	37828	33287	32709	
981	0	37830	33287	32696	
982	0	37840	33287	32684	
983	0	37824	33277	32681	
984	0	37825	33282	32684	
985	0	37808	33285	32675	
986	0	37824	33278	32666	
987	0	37810	33287	32670	
988	0	37800	33281	32670	
989	0	37776	33287	32665	
990	0	37794	33287	32666	
991	0	37770	33305	32670	
992	0	37800	33318	32665	
993	0	37810	33314	32668	
994	0	37831	33320	32668	
995	0	37836	33326	32677	
996	0	37826	33322	32684	
997	0	37834	33323	32694	
998	0	37836	33319	32700	
999	0	37848	33320	32702	
1000	0	37894	33287	32720	
1001	0	37906	33287	32720	
1002	0	37924	33302	32724	
1003	0	37936	33306	32732	
1004	0	37938	33304	32731	
1005	0	37928	33316	32734	
1006	0	37924	33304	32742	
1007	0	37928	33287	32740	
1008	0	37910	33301	32747	
1009	0	37920	33287	32759	
1010	0	37936	33287	32762	
1011	0	37944	33306	32764	
1012	0	37954	33300	32775	
1013	0	37990	33303	32770	
1014	0	37962	33311	32767	
1015	0	37962	33307	32770	
1016	0	37992	33310	32775	
1017	0	37984	33327	32775	
1018	0	37960	33335	32772	
1019	0	37960	33343	32771	
1020	0	37972	33339	32774	
1021	0	37958	33335	32772	
1022	0	37956	33326	32791	
1023	0	37962	33325	32775	
1024	0	37944	33327	32772	
1025	0	37924	33330	32767	
1026	0	37912	33334	32762	
1027	0	37894	33330	32763	
1028	0	37882	33328	32758	
1029	0	37860	33332	32754	
1030	0	37846	33326	32751	
1031	0	37842	33338	32758	
1032	0	37832	33327	32754	
1033	0	37792	33327	32746	
1034	0	37772	33331	32750	
1035	0	37746	33336	32752	
1036	0	37751	33326	32758	
1037	0	37724	33326	32759	
1038	0	37700	33323	32762	
1039	0	37712	33335	32751	
1040	0	37712	33333	32742	
1041	0	37696	33348	32736	
1042	0	37698	33344	32732	
1043	0	37682	33340	32731	
1044	0	37658	33351	32704	
1045	0	37640	33358	32696	
1046	0	37628	33360	32699	
1047	0	37616	33351	32690	
1048	0	37612	33370	32681	
1049	0	37616	33357	32678	
1050	0	37600	33371	32662	
1051	0	37576	33369	32660	
1052	0	37556	33367	32647	
1053	0	37552	33383	32646	
1054	0	37545	33376	32647	
1055	0	37558	33391	32632	
1056	0	37545	33380	32643	
1057	0	37552	33383	32647	
1058	0	37562	33389	32632	
1059	0	37552	33387	32627	
1060	0	37540	33396	32622	
1061	0	37544	33388	32615	
1062	0	37538	33398	32610	
1063	0	37522	33392	32600	
1064	0	37516	33380	32607	
1065	0	37511	33388	32607	
1066	0	37508	33398	32593	
1067	0	37488	33403	32589	
1068	0	37476	33406	32598	
1069	0	37476	33396	32596	
1070	0	37452	33412	32592	
1071	0	37468	33401	32592	
1072	0	37476	33391	32612	
1073	0	37474	33397	32596	
1074	0	37485	33392	32615	
1075	0	37448	33395	32620	
1076	0	37452	33391	32624	
1077	0	37472	33396	32647	
1078	0	37478	33382	32672	
1079	0	37496	33382	32687	
1080	0	37506	33394	32680	
1081	0	37528	33380	32694	
1082	0	37534	33359	32704	
1083	0	37528	33351	32711	
1084	0	37518	33350	32706	
1085	0	37532	33363	32710	
1086	0	37524	33352	32720	
1087	0	37542	33342	32736	
1088	0	37556	33344	32752	
1089	0	37576	33333	32748	
1090	0	37564	33335	32771	
1091	0	37594	33332	32775	
1092	0	37596	33333	32775	
1093	0	37600	33325	32805	
1094	0	37604	33316	32822	
1095	0	37618	33318	32834	
1096	0	37639	33312	32838	
1097	0	37628	33319	32850	
1098	0	37660	33322	32850	
1099	0	37672	33312	32871	
1100	0	37676	33306	32873	
1101	0	37680	33309	32876	
1102	0	37706	33314	32884	
1103	0	37704	33318	32882	
1104	0	37712	33298	32894	
1105	0	37684	33311	32898	
1106	0	37696	33312	32903	
1107	0	37684	33319	32903	
1108	0	37700	33312	32918	
1109	0	37684	33311	32910	
1110	0	37688	33308	32903	
1111	0	37700	33300	32903	
1112	0	37732	33287	32916	
1113	0	37716	33287	32903	
1114	0	37714	33287	32917	
1115	0	37713	33300	32921	
1116	0	37710	33298	32903	
1117	0	37696	33282	32914	
1118	0	37702	33280	32903	
1119	0	37712	33287	32903	
1120	0	37700	33274	32890	
1121	0	37706	33261	32890	
1122	0	37688	33260	32890	
1123	0	37712	33260	32886	
1124	0	37708	33259	32868	
1125	0	37712	33254	32870	
1126	0	37726	33268	32858	
1127	0	37732	33264	32852	
1128	0	37749	33251	32854	
1129	0	37744	33261	32852	
1130	0	37736	33259	32859	
1131	0	37732	33274	32853	
1132	0	37724	33269	32850	
1133	0	37720	33271	32844	
1134	0	37712	33266	32855	
1135	0	37677	33278	32867	
1136	0	37684	33280	32848	
1137	0	37708	33282	32853	
1138	0	37708	33285	32862	
1139	0	37732	33287	32861	
1140	0	37728	33299	32868	
1141	0	37748	33303	32846	
1142	0	37728	33287	32839	
1143	0	37748	33287	32820	
1144	0	37760	33287	32831	
1145	0	37740	33282	32831	
1146	0	37728	33287	32818	
1147	0	37725	33305	32803	
1148	0	37712	33308	32804	
1149	0	37676	33314	32787	
1150	0	37682	33319	32775	
1151	0	37659	33316	32767	
1152	0	37668	33322	32758	
1153	0	37690	33332	32756	
1154	0	37682	33330	32758	
1155	0	37684	33326	32758	
1156	0	37684	33323	32760	
1157	0	37696	33334	32755	
1158	0	37690	33330	32732	
1159	0	37678	33328	32727	
1160	0	37659	33331	32722	
1161	0	37666	33330	32716	
1162	0	37660	33345	32715	
1163	0	37650	33337	32725	
1164	0	37660	33351	32728	
1165	0	37620	33351	32715	
1166	0	37632	33367	32706	
1167	0	37632	33351	32699	
1168	0	37612	33355	32703	
1169	0	37626	33362	32696	
1170	0	37640	33347	32708	
1171	0	37672	33351	32711	
1172	0	37675	33332	32695	
1173	0	37662	33326	32704	
1174	0	37658	33334	32690	
1175	0	37664	33346	32690	
1176	0	37680	33343	32688	
1177	0	37696	33336	32684	
1178	0	37676	33330	32706	
1179	0	37673	33322	32711	
1180	0	37702	33323	32720	
1181	0	37688	33324	32714	
1182	0	37702	33323	32716	
1183	0	37736	33323	32722	
1184	0	37720	33311	32728	
1185	0	37728	33316	32712	
1186	0	37742	33316	32722	
1187	0	37732	33331	32724	
1188	0	37746	33322	32742	
1189	0	37740	33320	32748	
1190	0	37724	33315	32762	
1191	0	37732	33318	32764	
1192	0	37736	33325	32753	
1193	0	37744	33325	32740	
1194	0	37740	33318	32758	
1195	0	37736	33316	32768	
1196	0	37712	33318	32760	
1197	0	37700	33319	32762	
1198	0	37704	33317	32760	
1199	0	37702	33320	32765	
1200	0	37688	33318	32766	
1201	0	37682	33325	32756	
1202	0	37690	33324	32775	
1203	0	37680	33312	32775	
1204	0	37676	33323	32784	
1205	0	37693	33318	32775	
1206	0	37697	33323	32786	
1207	0	37708	33328	32788	
1208	0	37708	33320	32775	
1209	0	37740	33312	32790	
1210	0	37740	33323	32773	
1211	0	37728	33303	32772	
1212	0	37754	33306	32775	
1213	0	37766	33302	32775	
1214	0	37778	33303	32775	
1215	0	37788	33287	32775	
1216	0	37785	33302	32775	
1217	0	37770	33316	32768	
1218	0	37776	33309	32768	
1219	0	37766	33308	32768	
1220	0	37792	33322	32755	
1221	0	37800	33307	32762	
1222	0	37767	33319	32756	
1223	0	37780	33325	32758	
1224	0	37792	33328	32748	
1225	0	37767	33340	32743	
1226	0	37744	33334	32752	
1227	0	37718	33342	32736	
1228	0	37702	33344	32754	
1229	0	37690	33351	32732	
1230	0	37708	33351	32723	
1231	0	37700	33359	32728	
1232	0	37686	33351	32711	
1233	0	37696	33356	32708	
1234	0	37680	33348	32708	
1235	0	37664	33351	32708	
1236	0	37648	33351	32701	
1237	0	37641	33332	32712	
1238	0	37648	33331	32718	
1239	0	37620	33334	32711	
1240	0	37624	33319	32735	
1241	0	37636	33331	32730	
1242	0	37624	33315	32740	
1243	0	37620	33311	32752	
1244	0	37614	33319	32766	
1245	0	37594	33319	32775	
1246	0	37593	33323	32766	
1247	0	37592	33331	32762	
1248	0	37572	33318	32767	
1249	0	37568	33308	32775	
1250	0	37556	33327	32786	
1251	0	37574	33326	32804	
1252	0	37575	33328	32815	
1253	0	37592	33332	32828	
1254	0	37592	33321	32850	
1255	0	37608	33309	32862	
1256	0	37588	33310	32864	
1257	0	37596	33317	32852	
1258	0	37612	33319	32848	
1259	0	37608	33323	32840	
1260	0	37608	33324	32847	
1261	0	37604	33319	32854	
1262	0	37608	33309	32852	
1263	0	37624	33327	32846	
1264	0	37600	33334	32836	
1265	0	37625	33339	32839	
1266	0	37592	33319	32846	
1267	0	37600	33312	32843	
1268	0	37592	33318	32836	
1269	0	37600	33324	32831	
1270	0	37600	33317	32832	
1271	0	37592	33322	32819	
1272	0	37576	33317	32820	
1273	0	37584	33337	32802	
1274	0	37568	33346	32798	
1275	0	37568	33335	32799	
1276	0	37552	33334	32802	
1277	0	37574	33338	32791	
1278	0	37572	33326	32800	
1279	0	37573	33328	32775	
1280	0	37568	33341	32773	
1281	0	37568	33320	32775	
1282	0	37572	33328	32766	
1283	0	37562	33330	32762	
1284	0	37556	33327	32773	
1285	0	37552	33324	32767	
1286	0	37568	33319	32766	
1287	0	37562	33337	32755	
1288	0	37542	33334	32764	
1289	0	37540	33330	32753	
1290	0	37506	33345	32767	
1291	0	37496	33332	32763	
1292	0	37476	33346	32758	
1293	0	37472	33347	32770	
1294	0	37477	33351	32775	
1295	0	37522	33344	32784	
1296	0	37512	33349	32772	
1297	0	37536	33351	32768	
1298	0	37534	33357	32758	
1299	0	37536	33351	32742	
1300	0	37544	33351	32735	
1301	0	37573	33358	32741	
1302	0	37561	33351	32730	
1303	0	37588	33362	32736	
1304	0	37598	33351	32730	
1305	0	37584	33340	32746	
1306	0	37572	33342	32758	
1307	0	37580	33345	32754	
1308	0	37606	33348	32766	
1309	0	37614	33340	32772	
1310	0	37615	33334	32775	
1311	0	37620	33356	32775	
1312	0	37636	33386	32770	
1313	0	37636	33386	32775	
1314	0	37632	33406	32769	
1315	0	37658	33402	32755	
1316	0	37672	33386	32746	
1317	0	37700	33375	32748	
1318	0	37738	33371	32726	
1319	0	37770	33350	32734	
1320	0	37818	33324	32742	
1321	0	37830	33287	32758	
1322	0	37852	33261	32758	
1323	0	37860	33241	32775	
1324	0	37844	33212	32804	
1325	0	37832	33195	32807	
1326	0	37820	33185	32795	
1327	0	37812	33167	32797	
1328	0	37804	33154	32794	
1329	0	37767	33154	32775	
1330	0	37796	33159	32775	
1331	0	37778	33159	32786	
1332	0	37780	33159	32775	
1333	0	37754	33167	32775	
1334	0	37736	33174	32773	
1335	0	37724	33196	32766	
1336	0	37714	33212	32775	
1337	0	37696	33230	32792	
1338	0	37691	33234	32799	
1339	0	37682	33245	32812	
1340	0	37676	33258	32822	
1341	0	37672	33251	32830	
1342	0	37664	33245	32839	
1343	0	37661	33238	32839	
1344	0	37673	33246	32846	
1345	0	37696	33238	32848	
1346	0	37688	33250	32841	
1347	0	37716	33230	32858	
1348	0	37708	33223	32866	
1349	0	37718	33245	32862	
1350	0	37739	33221	32876	
1351	0	37718	33223	32880	
1352	0	37698	33216	32879	
1353	0	37720	33203	32891	
1354	0	37736	33202	32903	
1355	0	37760	33193	32912	
1356	0	37776	33190	32929	
1357	0	37806	33197	32935	
1358	0	37818	33192	32939	
1359	0	37824	33176	32948	
1360	0	37828	33202	32930	
1361	0	37832	33197	32938	
1362	0	37848	33191	32935	
1363	0	37814	33215	32929	
1364	0	37812	33204	32940	
1365	0	37780	33223	32932	
1366	0	37768	33234	32940	
1367	0	37744	33242	32953	
1368	0	37737	33235	32976	
1369	0	37708	33258	32970	
1370	0	37682	33275	32967	
1371	0	37676	33279	32952	
1372	0	37664	33282	32966	
1373	0	37668	33287	32966	
1374	0	37653	33287	32960	
1375	0	37628	33279	32952	
1376	0	37613	33268	32951	
1377	0	37574	33266	32936	
1378	0	37568	33258	32931	
1379	0	37560	33255	32924	
1380	0	37552	33266	32921	
1381	0	37548	33246	32919	
1382	0	37540	33255	32914	
1383	0	37545	33262	32911	
1384	0	37552	33260	32931	
1385	0	37584	33243	32940	
1386	0	37596	33254	32948	
1387	0	37628	33250	32940	
1388	0	37660	33241	32955	
1389	0	37674	33232	32954	
1390	0	37696	33231	32959	
1391	0	37714	33237	32968	
1392	0	37716	33235	32962	
1393	0	37712	33246	32962	
1394	0	37704	33244	32967	
1395	0	37682	33238	32967	
1396	0	37668	33228	32953	
1397	0	37690	33216	32948	
1398	0	37700	33218	32935	
1399	0	37708	33202	32927	
1400	0	37714	33203	32903	
1401	0	37732	33196	32896	
1402	0	37721	33193	32887	
1403	0	37742	33194	32866	
1404	0	37748	33193	32846	
1405	0	37752	33189	32832	
1406	0	37772	33204	32817	
1407	0	37785	33188	32818	
1408	0	37784	33188	32812	
1409	0	37740	33208	32808	
1410	0	37720	33219	32800	
1411	0	37716	33242	32804	
1412	0	37736	33246	32806	
1413	0	37748	33234	32829	
1414	0	37728	33232	32838	
1415	0	37740	33241	32813	
1416	0	37762	33255	32812	
1417	0	37754	33240	32810	
1418	0	37778	33222	32820	
1419	0	37804	33220	32818	
1420	0	37824	33230	32808	
1421	0	37804	33236	32809	
1422	0	37800	33223	32821	
1423	0	37792	33236	32807	
1424	0	37804	33227	32810	
1425	0	37807	33223	32813	
1426	0	37796	33223	32820	
1427	0	37806	33222	32812	
1428	0	37804	33238	32792	
1429	0	37796	33251	32775	
1430	0	37780	33254	32770	
1431	0	37784	33256	32758	
1432	0	37786	33255	32726	
1433	0	37784	33266	32715	
1434	0	37784	33266	32701	
1435	0	37784	33261	32704	
1436	0	37767	33266	32690	
1437	0	37772	33267	32681	
1438	0	37796	33266	32677	
1439	0	37810	33262	32671	
1440	0	37826	33278	32662	
1441	0	37812	33263	32656	
1442	0	37808	33266	32680	
1443	0	37800	33245	32680	
1444	0	37800	33246	32685	
1445	0	37816	33269	32694	
1446	0	37818	33261	32702	
1447	0	37816	33266	32708	
1448	0	37830	33257	32716	
1449	0	37831	33253	32735	
1450	0	37820	33240	32756	
1451	0	37816	33242	32770	
1452	0	37808	33248	32775	
1453	0	37800	33254	32795	
1454	0	37814	33260	32795	
1455	0	37824	33255	32808	
1456	0	37826	33250	32822	
1457	0	37816	33260	32825	
1458	0	37818	33242	32825	
1459	0	37814	33246	32830	
1460	0	37798	33240	32826	
1461	0	37814	33232	32837	
1462	0	37784	33248	32830	
1463	0	37767	33247	32822	
1464	0	37758	33245	32830	
1465	0	37756	33254	32842	
1466	0	37759	33247	32839	
1467	0	37740	33248	32834	
1468	0	37744	33253	32838	
1469	0	37736	33267	32839	
1470	0	37740	33275	32844	
1471	0	37718	33259	32846	
1472	0	37720	33256	32844	
1473	0	37732	33255	32855	
1474	0	37712	33259	32844	
1475	0	37704	33251	32850	
1476	0	37720	33250	32850	
1477	0	37724	33236	32863	
1478	0	37728	33240	32867	
1479	0	37672	33247	32876	
1480	0	37676	33259	32884	
1481	0	37660	33268	32872	
1482	0	37616	33272	32876	
1483	0	37604	33287	32871	
1484	0	37592	33313	32864	
1485	0	37607	33327	32876	
1486	0	37597	33309	32890	
1487	0	37576	33306	32902	
1488	0	37575	33302	32895	
1489	0	37559	33294	32899	
1490	0	37548	33285	32898	
1491	0	37540	33287	32894	
1492	0	37562	33287	32878	
1493	0	37564	33286	32873	
1494	0	37560	33270	32871	
1495	0	37552	33269	32865	
1496	0	37572	33262	32868	
1497	0	37572	33261	32858	
1498	0	37578	33255	32875	
1499	0	37584	33247	32885	
1500	0	37605	33234	32887	
1501	0	37634	33216	32897	
1502	0	37632	33202	32890	
1503	0	37645	33199	32891	
1504	0	37644	33192	32900	
1505	0	37665	33212	32903	
1506	0	37670	33205	32912	
1507	0	37668	33197	32934	
1508	0	37676	33200	32936	
1509	0	37668	33193	32948	
1510	0	37688	33194	32940	
1511	0	37702	33192	32962	
1512	0	37752	33187	32967	
1513	0	37764	33179	32978	
1514	0	37808	33176	33006	
1515	0	37808	33179	33024	
1516	0	37840	33159	33030	
1517	0	37856	33166	33053	
1518	0	37856	33178	33060	
1519	0	37832	33168	33079	
1520	0	37856	33156	33089	
1521	0	37880	33158	33106	
1522	0	37872	33138	33115	
1523	0	37870	33136	33113	
1524	0	37862	33139	33117	
1525	0	37840	33139	33124	
1526	0	37831	33116	33128	
1527	0	37816	33122	33129	
1528	0	37776	33114	33138	
1529	0	37792	33110	33146	
1530	0	37766	33108	33139	
1531	0	37789	33110	33150	
1532	0	37774	33122	33145	
1533	0	37772	33108	33140	
1534	0	37767	33127	33127	
1535	0	37746	33129	33124	
1536	0	37728	33130	33125	
1537	0	37696	33140	33131	
1538	0	37700	33156	33128	
1539	0	37696	33152	33128	
1540	0	37704	33147	33130	
1541	0	37704	33142	33128	
1542	0	37712	33144	33132	
1543	0	37692	33148	33122	
1544	0	37692	33159	33116	
1545	0	37708	33130	33136	
1546	0	37712	33136	33140	
1547	0	37725	33136	33142	
1548	0	37732	33134	33142	
1549	0	37749	33126	33159	
1550	0	37774	33120	33168	
1551	0	37774	33119	33159	
1552	0	37812	33104	33183	
1553	0	37818	33108	33186	
1554	0	37808	33110	33176	
1555	0	37824	33104	33178	
1556	0	37808	33102	33174	
1557	0	37810	33125	33170	
1558	0	37792	33122	33179	
1559	0	37778	33127	33192	
1560	0	37752	33114	33202	
1561	0	37776	33111	33206	
1562	0	37782	33104	33220	
1563	0	37767	33115	33232	
1564	0	37772	33121	33228	
1565	0	37767	33116	33239	
1566	0	37796	33110	33258	
1567	0	37782	33112	33254	
1568	0	37780	33108	33268	
1569	0	37772	33119	33253	
1570	0	37800	33116	33260	
1571	0	37808	33098	33274	
1572	0	37784	33107	33285	
1573	0	37816	33111	33283	
1574	0	37824	33099	33281	
1575	0	37800	33113	33277	
1576	0	37792	33121	33268	
1577	0	37780	33104	33281	
1578	0	37774	33100	33280	
1579	0	37792	33107	33287	
1580	0	37784	33100	33305	
1581	0	37736	33103	33296	
1582	0	37740	33120	33287	
1583	0	37732	33123	33276	
1584	0	37742	33124	33280	
1585	0	37744	33119	33278	
1586	0	37756	33112	33278	
1587	0	37748	33120	33270	
1588	0	37746	33129	33269	
1589	0	37761	33136	33257	
1590	0	37767	33138	33260	
1591	0	37776	33154	33245	
1592	0	37788	33147	33234	
1593	0	37790	33159	33217	
1594	0	37806	33167	33198	
1595	0	37816	33186	33170	
1596	0	37816	33191	33150	
1597	0	37800	33191	33136	
1598	0	37788	33200	33134	
1599	0	37778	33197	33109	
1600	0	37766	33195	33084	
1601	0	37762	33196	33053	
1602	0	37750	33206	33054	
1603	0	37750	33198	33024	
1604	0	37767	33186	33010	
1605	0	37746	33190	33003	
1606	0	37732	33193	32991	
1607	0	37708	33199	32980	
1608	0	37712	33211	32940	
1609	0	37724	33202	32932	
1610	0	37706	33203	32944	
1611	0	37698	33208	32946	
1612	0	37696	33215	32933	
1613	0	37680	33228	32924	
1614	0	37690	33230	32924	
1615	0	37676	33227	32926	
1616	0	37660	33242	32924	
1617	0	37664	33247	32912	
1618	0	37656	33254	32917	
1619	0	37632	33258	32926	
1620	0	37660	33262	32903	
1621	0	37652	33268	32910	
1622	0	37639	33274	32935	
1623	0	37664	33270	32932	
1624	0	37680	33264	32947	
1625	0	37673	33260	32955	
1626	0	37680	33263	32973	
1627	0	37668	33258	32971	
1628	0	37650	33257	32982	
1629	0	37644	33251	32987	
1630	0	37656	33251	33001	
1631	0	37652	33246	33002	
1632	0	37668	33239	33010	
1633	0	37666	33235	33008	
1634	0	37644	33231	33031	
1635	0	37676	33238	33043	
1636	0	37670	33245	33058	
1637	0	37690	33244	33076	
1638	0	37688	33239	33078	
1639	0	37712	33223	33110	
1640	0	37732	33206	33112	
1641	0	37752	33204	33133	
1642	0	37752	33201	33129	
1643	0	37736	33202	33152	
1644	0	37732	33192	33176	
1645	0	37742	33197	33176	
1646	0	37727	33194	33194	
1647	0	37696	33196	33179	
1648	0	37708	33188	33192	
1649	0	37698	33175	33202	
1650	0	37712	33178	33200	
1651	0	37706	33172	33210	
1652	0	37725	33158	33198	
1653	0	37724	33156	33197	
1654	0	37714	33147	33196	
1655	0	37718	33136	33204	
1656	0	37688	33138	33191	
1657	0	37668	33130	33183	
1658	0	37656	33133	33181	
1659	0	37660	33127	33184	
1660	0	37643	33110	33187	
1661	0	37626	33125	33174	
1662	0	37656	33127	33158	
1663	0	37632	33126	33159	
1664	0	37644	33127	33159	
1665	0	37631	33135	33140	
1666	0	37609	33154	33130	
1667	0	37620	33159	33110	
1668	0	37606	33168	33095	
1669	0	37584	33159	33089	
1670	0	37572	33157	33082	
1671	0	37572	33159	33072	
1672	0	37562	33159	33077	
1673	0	37576	33159	33065	
1674	0	37574	33158	33078	
1675	0	37602	33159	33064	
1676	0	37600	33159	33077	
1677	0	37648	33159	33078	
1678	0	37669	33186	33062	
1679	0	37676	33187	33060	
1680	0	37692	33179	33056	
1681	0	37706	33184	33063	
1682	0	37714	33196	33038	
1683	0	37713	33206	33011	
1684	0	37712	33214	32994	
1685	0	37720	33223	32994	
1686	0	37724	33242	32971	
1687	0	37720	33256	32948	
1688	0	37722	33268	32939	
1689	0	37718	33272	32929	
1690	0	37692	33283	32918	
1691	0	37688	33301	32903	
1692	0	37672	33314	32900	
1693	0	37696	33321	32896	
1694	0	37708	33317	32903	
1695	0	37708	33314	32918	
1696	0	37741	33304	32928	
1697	0	37732	33303	32935	
1698	0	37736	33287	32930	
1699	0	37752	33287	32944	
1700	0	37776	33283	32962	
1701	0	37792	33266	32986	
1702	0	37800	33254	33010	
1703	0	37806	33252	33019	
1704	0	37814	33254	33026	
1705	0	37824	33246	33024	
1706	0	37832	33234	33026	
1707	0	37846	33220	33056	
1708	0	37840	33222	33072	
1709	0	37832	33223	33082	
1710	0	37820	33220	33114	
1711	0	37829	33210	33128	
1712	0	37832	33201	33150	
1713	0	37824	33198	33178	
1714	0	37824	33201	33214	
1715	0	37822	33202	33248	
1716	0	37826	33190	33287	
1717	0	37824	33191	33313	
1718	0	37820	33207	33344	
1719	0	37844	33192	33350	
1720	0	37828	33204	33368	
1721	0	37846	33195	33383	
1722	0	37850	33206	33389	
1723	0	37838	33213	33400	
1724	0	37828	33207	33415	
1725	0	37831	33213	33423	
1726	0	37852	33204	33439	
1727	0	37828	33191	33463	
1728	0	37832	33184	33463	
1729	0	37818	33191	33466	
1730	0	37804	33190	33458	
1731	0	37816	33184	33461	
1732	0	37812	33176	33450	
1733	0	37824	33179	33442	
1734	0	37808	33184	33430	
1735	0	37812	33189	33428	
1736	0	37808	33191	33431	
1737	0	37808	33184	33439	
1738	0	37776	33189	33447	
1739	0	37752	33200	33444	
1740	0	37740	33206	33449	
1741	0	37724	33213	33454	
1742	0	37688	33218	33446	
1743	0	37700	33223	33436	
1744	0	37688	33238	33403	
1745	0	37678	33237	33415	
1746	0	37686	33235	33415	
1747	0	37668	33232	33399	
1748	0	37640	33235	33393	
1749	0	37608	33226	33383	
1750	0	37584	33231	33382	
1751	0	37576	33228	33394	
1752	0	37544	33214	33395	
1753	0	37540	33202	33405	
1754	0	37524	33198	33410	
1755	0	37488	33198	33415	
1756	0	37496	33204	33426	
1757	0	37488	33208	33431	
1758	0	37464	33214	33438	
1759	0	37440	33211	33441	
1760	0	37442	33200	33466	
1761	0	37416	33204	33472	
1762	0	37404	33220	33474	
1763	0	37400	33206	33490	
1764	0	37376	33203	33492	
1765	0	37356	33212	33499	
1766	0	37340	33213	33514	
1767	0	37304	33236	33519	
1768	0	37296	33236	33524	
1769	0	37296	33232	33527	
1770	0	37306	33232	33533	
1771	0	37300	33245	33543	
1772	0	37288	33245	33550	
1773	0	37288	33256	33569	
1774	0	37264	33258	33567	
1775	0	37280	33259	33568	
1776	0	37282	33257	33576	
1777	0	37296	33263	33572	
1778	0	37276	33258	33575	
1779	0	37288	33247	33584	
1780	0	37304	33229	33586	
1781	0	37318	33223	33592	
1782	0	37318	33229	33580	
1783	0	37318	33222	33584	
1784	0	37308	33223	33590	
1785	0	37306	33222	33581	
1786	0	37280	33223	33599	
1787	0	37308	33221	33603	
1788	0	37324	33223	33618	
1789	0	37312	33223	33607	
1790	0	37318	33212	33622	
1791	0	37312	33209	33621	
1792	0	37312	33207	33618	
1793	0	37286	33211	33626	
1794	0	37282	33229	33628	
1795	0	37312	33234	33637	
1796	0	37330	33228	33647	
1797	0	37344	33216	33644	
1798	0	37376	33229	33629	
1799	0	37408	33241	33628	
1800	0	37418	33239	33635	
1801	0	37444	33243	33645	
1802	0	37492	33252	33641	
1803	0	37488	33239	33632	
1804	0	37532	33247	33627	
1805	0	37568	33241	33619	
1806	0	37620	33234	33634	
1807	0	37624	33234	33636	
1808	0	37625	33218	33655	
1809	0	37656	33203	33664	
1810	0	37690	33204	33671	
1811	0	37713	33196	33666	
1812	0	37733	33207	33680	
1813	0	37758	33204	33682	
1814	0	37766	33206	33690	
1815	0	37748	33206	33700	
1816	0	37758	33206	33713	
1817	0	37772	33213	33714	
1818	0	37760	33222	33720	
1819	0	37757	33232	33709	
1820	0	37728	33250	33734	
1821	0	37704	33236	33738	
1822	0	37696	33238	33746	
1823	0	37684	33223	33746	
1824	0	37680	33230	33750	
1825	0	37696	33227	33758	
1826	0	37682	33223	33765	
1827	0	37644	33234	33780	
1828	0	37632	33231	33790	
1829	0	37624	33239	33793	
1830	0	37618	33231	33799	
1831	0	37600	33240	33799	
1832	0	37575	33242	33799	
1833	0	37560	33223	33826	
1834	0	37546	33206	33840	
1835	0	37542	33192	33850	
1836	0	37530	33193	33851	
1837	0	37520	33200	33849	
1838	0	37516	33192	33826	
1839	0	37510	33191	33811	
1840	0	37506	33188	33824	
1841	0	37528	33188	33799	
1842	0	37511	33166	33814	
1843	0	37458	33159	33799	
1844	0	37444	33148	33799	
1845	0	37442	33151	33798	
1846	0	37448	33139	33799	
1847	0	37428	33141	33798	
1848	0	37412	33122	33790	
1849	0	37380	33128	33784	
1850	0	37364	33128	33790	
1851	0	37368	33127	33773	
1852	0	37370	33114	33754	
1853	0	37368	33111	33755	
1854	0	37336	33095	33751	
1855	0	37342	33093	33742	
1856	0	37312	33098	33746	
1857	0	37308	33107	33741	
1858	0	37304	33110	33736	
1859	0	37300	33111	33735	
1860	0	37300	33110	33723	
1861	0	37312	33129	33716	
1862	0	37298	33150	33710	
1863	0	37284	33159	33695	
1864	0	37286	33159	33692	
1865	0	37282	33174	33696	
1866	0	37284	33178	33702	
1867	0	37284	33197	33714	
1868	0	37304	33210	33721	
1869	0	37336	33212	33730	
1870	0	37318	33218	33750	
1871	0	37320	33213	33762	
1872	0	37348	33213	33772	
1873	0	37360	33231	33770	
1874	0	37368	33239	33770	
1875	0	37373	33240	33765	
1876	0	37383	33236	33771	
1877	0	37440	33235	33780	
1878	0	37443	33247	33760	
1879	0	37442	33228	33740	
1880	0	37456	33222	33745	
1881	0	37458	33234	33746	
1882	0	37484	33231	33735	
1883	0	37480	33231	33727	
1884	0	37512	33228	33726	
1885	0	37514	33221	33734	
1886	0	37528	33223	33714	
1887	0	37548	33219	33716	
1888	0	37548	33207	33724	
1889	0	37568	33228	33708	
1890	0	37540	33239	33700	
1891	0	37516	33230	33678	
1892	0	37536	33228	33687	
1893	0	37532	33222	33703	
1894	0	37541	33243	33680	
1895	0	37528	33254	33671	
1896	0	37541	33257	33671	
1897	0	37556	33283	33668	
1898	0	37577	33287	33683	
1899	0	37586	33287	33690	
1900	0	37584	33287	33694	
1901	0	37600	33278	33703	
1902	0	37608	33278	33705	
1903	0	37636	33252	33718	
1904	0	37672	33243	33735	
1905	0	37686	33245	33744	
1906	0	37704	33248	33755	
1907	0	37736	33245	33766	
1908	0	37746	33223	33776	
1909	0	37748	33234	33788	
1910	0	37760	33223	33792	
1911	0	37760	33223	33799	
1912	0	37800	33214	33824	
1913	0	37804	33193	33822	
1914	0	37800	33191	33808	
1915	0	37812	33198	33822	
1916	0	37832	33203	33831	
1917	0	37848	33202	33829	
1918	0	37818	33196	33839	
1919	0	37810	33186	33844	
1920	0	37794	33187	33839	
1921	0	37788	33207	33831	
1922	0	37798	33209	33835	
1923	0	37796	33220	33826	
1924	0	37784	33223	33823	
1925	0	37764	33238	33820	
1926	0	37752	33243	33799	
1927	0	37740	33263	33787	
1928	0	37728	33264	33787	
1929	0	37704	33261	33774	
1930	0	37714	33258	33759	
1931	0	37690	33250	33735	
1932	0	37706	33245	33704	
1933	0	37724	33246	33686	
1934	0	37712	33238	33680	
1935	0	37702	33238	33664	
1936	0	37704	33250	33658	
1937	0	37686	33254	33641	
1938	0	37680	33232	33636	
1939	0	37672	33241	33628	
1940	0	37668	33254	33607	
1941	0	37650	33234	33580	
1942	0	37640	33236	33588	
1943	0	37644	33243	33574	
1944	0	37648	33235	33577	
1945	0	37604	33251	33568	
1946	0	37584	33256	33574	
1947	0	37561	33246	33584	
1948	0	37572	33248	33586	
1949	0	37596	33248	33600	
1950	0	37584	33247	33607	
1951	0	37578	33240	33627	
1952	0	37568	33251	33624	
1953	0	37556	33223	33634	
1954	0	37556	33217	33637	
1955	0	37544	33204	33639	
1956	0	37520	33190	33655	
1957	0	37516	33199	33660	
1958	0	37490	33202	33671	
1959	0	37472	33199	33668	
1960	0	37466	33196	33700	
1961	0	37450	33205	33704	
1962	0	37425	33206	33715	
1963	0	37440	33207	33730	
1964	0	37420	33222	33742	
1965	0	37432	33215	33755	
1966	0	37440	33202	33770	
1967	0	37440	33196	33795	
1968	0	37432	33206	33815	
1969	0	37430	33203	33839	
1970	0	37428	33197	33858	
1971	0	37446	33192	33863	
1972	0	37426	33192	33872	
1973	0	37408	33186	33888	
1974	0	37424	33176	33911	
1975	0	37420	33187	33911	
1976	0	37400	33172	33924	
1977	0	37378	33178	33934	
1978	0	37410	33172	33938	
1979	0	37408	33164	33944	
1980	0	37400	33159	33948	
1981	0	37410	33142	33956	
1982	0	37378	33134	33976	
1983	0	37412	33122	33979	
1984	0	37430	33125	33996	
1985	0	37440	33104	34015	
1986	0	37448	33094	34024	
1987	0	37460	33104	34047	
1988	0	37466	33124	34052	
1989	0	37468	33115	34066	
1990	0	37456	33112	34101	
1991	0	37444	33110	34108	
1992	0	37458	33117	34112	
1993	0	37468	33125	34130	
1994	0	37456	33128	34134	
1995	0	37468	33138	34146	
1996	0	37488	33130	34164	
1997	0	37490	33145	34183	
1998	0	37484	33143	34197	
1999	0	37486	33145	34212	
2000	0	37462	33159	34216	
2001	0	37446	33177	34240	
2002	0	37472	33176	34235	
2003	0	37498	33159	34234	
2004	0	37498	33179	34240	
2005	0	37510	33159	34247	
2006	0	37500	33153	34261	
2007	0	37484	33145	34268	
2008	0	37510	33146	34271	
2009	0	37516	33135	34276	
2010	0	37536	33134	34272	
2011	0	37536	33128	34273	
2012	0	37528	33127	34264	
2013	0	37530	33120	34283	
2014	0	37548	33120	34281	
2015	0	37556	33127	34273	
2016	0	37556	33129	34277	
2017	0	37541	33135	34276	
2018	0	37524	33137	34272	
2019	0	37476	33130	34263	
2020	0	37436	33147	34250	
2021	0	37428	33146	34247	
2022	0	37440	33152	34230	
2023	0	37450	33149	34230	
2024	0	37450	33144	34231	
2025	0	37446	33147	34243	
2026	0	37456	33138	34256	
2027	0	37456	33138	34268	
2028	0	37424	33133	34258	
2029	0	37420	33130	34247	
2030	0	37416	33129	34247	
2031	0	37416	33120	34242	
2032	0	37428	33110	34243	
2033	0	37416	33111	34224	
2034	0	37412	33118	34218	
2035	0	37410	33118	34219	
2036	0	37383	33110	34230	
2037	0	37364	33112	34235	
2038	0	37362	33111	34224	
2039	0	37378	33112	34237	
2040	0	37378	33114	34227	
2041	0	37412	33104	34239	
2042	0	37420	33110	34240	
2043	0	37438	33110	34246	
2044	0	37434	33107	34247	
2045	0	37456	33104	34253	
2046	0	37456	33089	34256	
2047	0	37456	33103	34246	
2048	0	37469	33113	34246	
2049	0	37451	33117	34259	
2050	0	37462	33116	34260	
2051	0	37448	33127	34247	
2052	0	37458	33123	34242	
2053	0	37472	33116	34240	
2054	0	37496	33117	34242	
2055	0	37525	33110	34226	
2056	0	37510	33120	34222	
2057	0	37518	33104	34214	
2058	0	37512	33119	34186	
2059	0	37520	33104	34198	
2060	0	37520	33110	34181	
2061	0	37512	33138	34168	
2062	0	37504	33133	34167	
2063	0	37476	33128	34161	
2064	0	37472	33138	34156	
2065	0	37447	33126	34156	
2066	0	37450	33140	34148	
2067	0	37440	33143	34141	
2068	0	37456	33152	34138	
2069	0	37458	33159	34129	
2070	0	37472	33174	34124	
2071	0	37464	33172	34134	
2072	0	37466	33159	34132	
2073	0	37476	33155	34125	
2074	0	37490	33150	34145	
2075	0	37476	33146	34150	
2076	0	37504	33144	34151	
2077	0	37506	33140	34158	
2078	0	37492	33138	34171	
2079	0	37484	33143	34172	
2080	0	37498	33146	34183	
2081	0	37504	33152	34198	
2082	0	37488	33148	34208	
2083	0	37496	33154	34223	
2084	0	37506	33175	34233	
2085	0	37511	33174	34240	
2086	0	37528	33165	34238	
2087	0	37540	33187	34247	
2088	0	37529	33195	34253	
2089	0	37548	33196	34258	
2090	0	37568	33198	34247	
2091	0	37573	33212	34252	
2092	0	37554	33198	34261	
2093	0	37542	33192	34255	
2094	0	37552	33195	34277	
2095	0	37536	33206	34262	
2096	0	37537	33199	34256	
2097	0	37541	33204	34266	
2098	0	37542	33188	34273	
2099	0	37540	33185	34277	
2100	0	37560	33191	34264	
2101	0	37560	33172	34267	
2102	0	37580	33175	34279	
2103	0	37600	33171	34282	
2104	0	37588	33172	34290	
2105	0	37588	33170	34308	
2106	0	37584	33158	34311	
2107	0	37576	33157	34333	
2108	0	37578	33152	34348	
2109	0	37584	33158	34375	
2110	0	37568	33159	34400	
2111	0	37564	33159	34429	
2112	0	37568	33154	34454	
2113	0	37552	33156	34462	
2114	0	37545	33174	34460	
2115	0	37560	33175	34462	
2116	0	37548	33192	34460	
2117	0	37576	33191	34439	
2118	0	37568	33204	34439	
2119	0	37548	33193	34438	
2120	0	37532	33188	34428	
2121	0	37504	33188	34419	
2122	0	37500	33187	34396	
2123	0	37488	33192	34375	
2124	0	37448	33189	34360	
2125	0	37396	33198	34339	
2126	0	37370	33208	34328	
2127	0	37329	33208	34311	
2128	0	37284	33200	34311	
2129	0	37232	33206	34298	
2130	0	37208	33195	34327	
2131	0	37180	33199	34308	
2132	0	37152	33199	34309	
2133	0	37144	33199	34311	
2134	0	37108	33191	34332	
2135	0	37078	33187	34342	
2136	0	37040	33192	34356	
2137	0	37032	33191	34360	
2138	0	36994	33187	34372	
2139	0	36971	33191	34398	
2140	0	36984	33193	34432	
2141	0	36964	33200	34448	
2142	0	36930	33206	34471	
2143	0	36898	33194	34510	
2144	0	36870	33185	34546	
2145	0	36852	33186	34594	
2146	0	36844	33196	34612	
2147	0	36836	33196	34643	
2148	0	36836	33188	34661	
2149	0	36826	33179	34695	
2150	0	36822	33185	34700	
2151	0	36828	33178	34713	
2152	0	36824	33195	34722	
2153	0	36812	33196	34735	
2154	0	36806	33188	34770	
2155	0	36784	33191	34766	
2156	0	36800	33180	34795	
2157	0	36790	33191	34788	
2158	0	36792	33189	34798	
2159	0	36792	33184	34798	
2160	0	36804	33188	34802	
2161	0	36808	33191	34800	
2162	0	36808	33197	34800	
2163	0	36844	33205	34795	
2164	0	36858	33200	34800	
2165	0	36866	33211	34796	
2166	0	36896	33213	34803	
2167	0	36930	33202	34804	
2168	0	36948	33183	34808	
2169	0	36984	33172	34794	
2170	0	37024	33180	34784	
2171	0	37040	33187	34779	
2172	0	37072	33174	34782	
2173	0	37112	33159	34768	
2174	0	37134	33158	34758	
2175	0	37160	33159	34755	
2176	0	37200	33159	34738	
2177	0	37220	33173	34718	
2178	0	37228	33167	34722	
2179	0	37255	33162	34705	
2180	0	37270	33159	34704	
2181	0	37261	33154	34690	
2182	0	37280	33159	34680	
2183	0	37290	33154	34688	
2184	0	37314	33156	34673	
2185	0	37312	33159	34680	
2186	0	37332	33156	34684	
2187	0	37348	33154	34684	
2188	0	37376	33159	34689	
2189	0	37382	33159	34704	
2190	0	37390	33152	34710	
2191	0	37382	33145	34726	
2192	0	37376	33154	34733	
2193	0	37383	33151	34750	
2194	0	37382	33143	34759	
2195	0	37392	33128	34775	
2196	0	37400	33134	34776	
2197	0	37410	33124	34798	
2198	0	37420	33125	34798	
2199	0	37440	33125	34794	
2200	0	37452	33126	34802	
2201	0	37476	33110	34823	
2202	0	37500	33098	34838	
2203	0	37530	33107	34860	
2204	0	37546	33093	34882	
2205	0	37560	33084	34883	
2206	0	37592	33068	34896	
2207	0	37618	33065	34903	
2208	0	37620	33078	34920	
2209	0	37652	33070	34935	
2210	0	37665	33080	34962	
2211	0	37669	33084	34982	
2212	0	37650	33086	34987	
2213	0	37656	33095	35004	
2214	0	37652	33092	35015	
2215	0	37676	33102	35032	
2216	0	37676	33106	35047	
2217	0	37660	33111	35046	
2218	0	37664	33127	35042	
2219	0	37658	33107	35024	
2220	0	37634	33119	35009	
2221	0	37648	33134	34997	
2222	0	37602	33140	34976	
2223	0	37602	33144	34943	
2224	0	37554	33146	34917	
2225	0	37544	33158	34887	
2226	0	37510	33146	34858	
2227	0	37504	33144	34848	
2228	0	37472	33151	34823	
2229	0	37432	33141	34810	
2230	0	37400	33138	34786	
2231	0	37374	33119	34771	
2232	0	37338	33125	34752	
2233	0	37280	33120	34734	
2234	0	37240	33134	34718	
2235	0	37188	33127	34713	
2236	0	37140	33113	34701	
2237	0	37068	33093	34700	
2238	0	37010	33088	34713	
2239	0	36976	33095	34707	
2240	0	36956	33095	34710	
2241	0	36918	33096	34719	
2242	0	36892	33102	34751	
2243	0	36870	33121	34779	
2244	0	36856	33110	34814	
2245	0	36834	33124	34853	
2246	0	36792	33111	34883	
2247	0	36730	33100	34905	
2248	0	36686	33099	34927	
2249	0	36636	33104	34928	
2250	0	36569	33085	34944	
2251	0	36544	33088	34951	
2252	0	36504	33092	34944	
2253	0	36478	33088	34950	
2254	0	36450	33092	34972	
2255	0	36452	33098	34986	
2256	0	36468	33100	34992	
2257	0	36471	33095	35015	
2258	0	36476	33110	35047	
2259	0	36492	33104	35079	
2260	0	36524	33110	35111	
2261	0	36558	33120	35150	
2262	0	36562	33126	35166	
2263	0	36570	33140	35196	
2264	0	36584	33154	35216	
2265	0	36608	33159	35238	
2266	0	36616	33168	35259	
2267	0	36619	33178	35264	
2268	0	36628	33159	35304	
2269	0	36640	33175	35311	
2270	0	36688	33174	35334	
2271	0	36720	33175	35344	
2272	0	36764	33176	35363	
2273	0	36808	33157	35378	
2274	0	36864	33134	35390	
2275	0	36920	33130	35392	
2276	0	36976	33122	35399	
2277	0	37060	33113	35380	
2278	0	37136	33100	35382	
2279	0	37212	33090	35382	
2280	0	37268	33095	35375	
2281	0	37314	33091	35361	
2282	0	37346	33078	35354	
2283	0	37396	33082	35329	
2284	0	37426	33095	35303	
2285	0	37445	33095	35271	
2286	0	37472	33101	35254	
2287	0	37474	33102	35242	
2288	0	37476	33107	35220	
2289	0	37464	33096	35190	
2290	0	37472	33095	35174	
2291	0	37444	33106	35158	
2292	0	37444	33110	35128	
2293	0	37416	33102	35122	
2294	0	37400	33114	35079	
2295	0	37348	33122	35049	
2296	0	37336	33131	35036	
2297	0	37314	33149	34993	
2298	0	37270	33159	34992	
2299	0	37232	33155	34980	
2300	0	37198	33174	34969	
2301	0	37146	33176	34980	
2302	0	37088	33185	34968	
2303	0	37032	33193	34978	
2304	0	37010	33196	34978	
2305	0	36954	33204	34976	
2306	0	36946	33216	34978	
2307	0	36908	33222	34974	
2308	0	36864	33222	34986	
2309	0	36850	33236	34989	
2310	0	36816	33232	34983	
2311	0	36818	33230	34994	
2312	0	36810	33223	35011	
2313	0	36818	33221	35024	
2314	0	36844	33202	35044	
2315	0	36850	33180	35074	
2316	0	36884	33166	35095	
2317	0	36907	33159	35106	
2318	0	36914	33159	35116	
2319	0	36964	33143	35118	
2320	0	37018	33141	35124	
2321	0	37028	33120	35122	
2322	0	37068	33110	35116	
2323	0	37115	33089	35119	
2324	0	37125	33087	35108	
2325	0	37144	33095	35098	
2326	0	37176	33092	35098	
2327	0	37178	33095	35092	
2328	0	37190	33112	35088	
2329	0	37161	33118	35078	
2330	0	37152	33133	35056	
2331	0	37138	33126	35060	
2332	0	37112	33129	35072	
2333	0	37092	33143	35069	
2334	0	37092	33150	35072	
2335	0	37064	33140	35069	
2336	0	37036	33136	35066	
2337	0	37012	33159	35044	
2338	0	36978	33181	35049	
2339	0	36958	33183	35047	
2340	0	36936	33188	35052	
2341	0	36912	33193	35042	
2342	0	36871	33191	35055	
2343	0	36856	33202	35058	
2344	0	36828	33186	35075	
2345	0	36826	33173	35097	
2346	0	36804	33177	35129	
2347	0	36772	33164	35167	
2348	0	36752	33159	35194	
2349	0	36726	33159	35239	
2350	0	36704	33159	35279	
2351	0	36712	33159	35316	
2352	0	36700	33158	35350	
2353	0	36677	33159	35372	
2354	0	36648	33166	35394	
2355	0	36634	33176	35426	
2356	0	36648	33188	35443	
2357	0	36616	33193	35450	
2358	0	36608	33191	35463	
2359	0	36592	33179	35487	
2360	0	36564	33168	35512	
2361	0	36548	33159	35527	
2362	0	36548	33152	35536	
2363	0	36540	33143	35560	
2364	0	36556	33129	35584	
2365	0	36556	33120	35610	
2366	0	36580	33118	35626	
2367	0	36577	33091	35670	
2368	0	36595	33086	35700	
2369	0	36614	33084	35732	
2370	0	36640	33079	35752	
2371	0	36624	33070	35773	
2372	0	36604	33080	35802	
2373	0	36592	33082	35819	
2374	0	36618	33076	35828	
2375	0	36620	33076	35846	
2376	0	36634	33080	35847	
2377	0	36604	33074	35847	
2378	0	36584	33076	35846	
2379	0	36570	33082	35834	
2380	0	36560	33084	35824	
2381	0	36564	33084	35809	
2382	0	36556	33080	35812	
2383	0	36524	33067	35794	
2384	0	36510	33078	35788	
2385	0	36504	33063	35786	
2386	0	36464	33069	35779	
2387	0	36460	33062	35780	
2388	0	36410	33059	35768	
2389	0	36388	33063	35783	
2390	0	36338	33042	35798	
2391	0	36328	33041	35799	
2392	0	36305	33030	35808	
2393	0	36274	33038	35816	
2394	0	36256	33048	35834	
2395	0	36246	33051	35838	
2396	0	36234	33067	35846	
2397	0	36196	33071	35840	
2398	0	36180	33078	35828	
2399	0	36144	33078	35840	
2400	0	36140	33058	35847	
2401	0	36140	33062	35868	
2402	0	36116	33054	35877	
2403	0	36088	33064	35880	
2404	0	36096	33050	35899	
2405	0	36088	33070	35911	
2406	0	36104	33063	35926	
2407	0	36122	33059	35932	
2408	0	36112	33074	35959	
2409	0	36092	33078	35975	
2410	0	36104	33070	35996	
2411	0	36100	33078	36006	
2412	0	36140	33084	36005	
2413	0	36136	33088	35996	
2414	0	36152	33082	36007	
2415	0	36184	33086	36012	
2416	0	36186	33091	36000	
2417	0	36200	33065	35998	
2418	0	36240	33070	36006	
2419	0	36250	33071	35988	
2420	0	36264	33075	35970	
2421	0	36296	33079	35960	
2422	0	36320	33071	35968	
2423	0	36358	33068	35957	
2424	0	36400	33063	35944	
2425	0	36440	33063	35928	
2426	0	36474	33063	35924	
2427	0	36487	33057	35931	
2428	0	36524	33061	35911	
2429	0	36556	33056	35916	
2430	0	36588	33050	35920	
2431	0	36640	33052	35930	
2432	0	36680	33071	35935	
2433	0	36730	33079	35933	
2434	0	36776	33082	35942	
2435	0	36804	33084	35943	
2436	0	36844	33076	35944	
2437	0	36882	33071	35958	
2438	0	36912	33065	35960	
2439	0	36956	33054	35966	
2440	0	36990	33053	35963	
2441	0	37026	33060	35966	
2442	0	37072	33048	35975	
2443	0	37102	33044	35990	
2444	0	37123	33042	35996	
2445	0	37134	33031	36007	
2446	0	37136	33030	36000	
2447	0	37150	33031	36000	
2448	0	37136	33040	36000	
2449	0	37141	33031	35982	
2450	0	37116	33034	35968	
2451	0	37132	33031	35970	
2452	0	37127	33052	35952	
2453	0	37092	33046	35941	
2454	0	37049	33047	35916	
2455	0	37048	33046	35900	
2456	0	37029	33047	35901	
2457	0	36999	33047	35879	
2458	0	36998	33060	35847	
2459	0	36968	33066	35837	
2460	0	36920	33062	35834	
2461	0	36871	33065	35832	
2462	0	36832	33058	35820	
2463	0	36790	33067	35806	
2464	0	36760	33063	35810	
2465	0	36720	33076	35814	
2466	0	36677	33072	35823	
2467	0	36624	33090	35807	
2468	0	36594	33076	35806	
2469	0	36564	33087	35811	
2470	0	36536	33094	35799	
2471	0	36487	33117	35780	
2472	0	36474	33112	35776	
2473	0	36464	33123	35779	
2474	0	36432	33127	35760	
2475	0	36420	33130	35762	
2476	0	36392	33133	35766	
2477	0	36374	33133	35766	
2478	0	36359	33139	35766	
2479	0	36340	33138	35776	
2480	0	36340	33136	35788	
2481	0	36300	33134	35792	
2482	0	36316	33135	35812	
2483	0	36296	33135	35806	
2484	0	36270	33142	35815	
2485	0	36250	33146	35826	
2486	0	36244	33157	35816	
2487	0	36219	33159	35815	
2488	0	36192	33159	35836	
2489	0	36208	33159	35842	
2490	0	36210	33148	35861	
2491	0	36196	33136	35876	
2492	0	36196	33143	35878	
2493	0	36217	33142	35886	
2494	0	36230	33130	35906	
2495	0	36240	33135	35924	
2496	0	36224	33134	35929	
2497	0	36224	33144	35950	
2498	0	36218	33145	35963	
2499	0	36231	33147	35972	
2500	0	36222	33145	35993	
2501	0	36210	33142	36022	
2502	0	36214	33122	36061	
2503	0	36226	33127	36079	
2504	0	36240	33114	36098	
2505	0	36242	33110	36128	
2506	0	36290	33092	36160	
2507	0	36348	33095	36198	
2508	0	36372	33104	36216	
2509	0	36388	33108	36249	
2510	0	36420	33103	36268	
2511	0	36456	33090	36298	
2512	0	36500	33088	36317	
2513	0	36516	33088	36326	
2514	0	36556	33087	36339	
2515	0	36578	33074	36342	
2516	0	36616	33064	36352	
2517	0	36644	33058	36333	
2518	0	36676	33047	36328	
2519	0	36680	33031	36320	
2520	0	36668	33043	36310	
2521	0	36680	33044	36286	
2522	0	36700	33048	36279	
2523	0	36680	33046	36264	
2524	0	36676	33031	36252	
2525	0	36668	33043	36231	
2526	0	36666	33030	36231	
2527	0	36674	33031	36230	
2528	0	36668	33049	36208	
2529	0	36658	33041	36195	
2530	0	36686	33036	36196	
2531	0	36688	33044	36184	
2532	0	36678	33046	36178	
2533	0	36704	33048	36148	
2534	0	36700	33054	36141	
2535	0	36692	33047	36141	
2536	0	36700	33055	36136	
2537	0	36690	33053	36134	
2538	0	36704	33054	36112	
2539	0	36696	33052	36099	
2540	0	36666	33068	36076	
2541	0	36652	33068	36066	
2542	0	36624	33060	36066	
2543	0	36596	33074	36039	
2544	0	36560	33091	36009	
2545	0	36504	33090	36023	
2546	0	36487	33095	36006	
2547	0	36486	33090	36007	
2548	0	36472	33095	35994	
2549	0	36424	33095	35975	
2550	0	36384	33101	35975	
2551	0	36348	33116	35968	
2552	0	36324	33118	35965	
2553	0	36290	33131	35950	
2554	0	36264	33133	35936	
2555	0	36248	33135	35943	
2556	0	36216	33128	35931	
2557	0	36184	33147	35920	
2558	0	36144	33158	35904	
2559	0	36116	33140	35911	
2560	0	36080	33155	35907	
2561	0	36065	33168	35900	
2562	0	36052	33178	35894	
2563	0	36044	33190	35894	
2564	0	36038	33198	35895	
2565	0	36012	33211	35900	
2566	0	35996	33191	35911	
2567	0	35968	33204	35914	
2568	0	35944	33207	35924	
2569	0	35932	33213	35933	
2570	0	35908	33201	35947	
2571	0	35912	33204	35961	
2572	0	35904	33215	35948	
2573	0	35904	33213	35947	
2574	0	35884	33216	35964	
2575	0	35847	33223	35962	
2576	0	35840	33223	35964	
2577	0	35832	33223	35966	
2578	0	35847	33223	35972	
2579	0	35860	33218	35975	
2580	0	35838	33220	35989	
2581	0	35856	33219	35997	
2582	0	35847	33223	36004	
2583	0	35840	33220	36016	
2584	0	35864	33220	36015	
2585	0	35872	33223	36023	
2586	0	35880	33223	36032	
2587	0	35876	33223	36026	
2588	0	35858	33223	36039	
2589	0	35872	33239	36028	
2590	0	35856	33228	36034	
2591	0	35871	33223	36034	
2592	0	35876	33228	36039	
2593	0	35880	33232	36046	
2594	0	35860	33232	36039	
2595	0	35868	33223	36030	
2596	0	35880	33232	36039	
2597	0	35876	33215	36052	
2598	0	35884	33232	36044	
2599	0	35908	33243	36038	
2600	0	35932	33234	36054	
2601	0	35916	33231	36075	
2602	0	35936	33232	36075	
2603	0	35952	33229	36072	
2604	0	36005	33236	36076	
2605	0	36038	33224	36086	
2606	0	36048	33222	36073	
2607	0	36062	33226	36063	
2608	0	36092	33232	36059	
2609	0	36096	33238	36045	
2610	0	36132	33228	36050	
2611	0	36158	33223	36054	
2612	0	36153	33215	36052	
2613	0	36164	33215	36052	
2614	0	36184	33215	36052	
2615	0	36188	33206	36071	
2616	0	36188	33203	36086	
2617	0	36184	33213	36100	
2618	0	36168	33206	36124	
2619	0	36191	33210	36131	
2620	0	36170	33220	36148	
2621	0	36172	33214	36160	
2622	0	36178	33221	36178	
2623	0	36180	33206	36191	
2624	0	36168	33198	36210	
2625	0	36150	33200	36218	
2626	0	36141	33194	36231	
2627	0	36128	33202	36242	
2628	0	36130	33207	36251	
2629	0	36110	33209	36248	
2630	0	36112	33219	36268	
2631	0	36104	33202	36263	
2632	0	36102	33202	36260	
2633	0	36103	33213	36261	
2634	0	36128	33212	36274	
2635	0	36108	33211	36280	
2636	0	36108	33217	36284	
2637	0	36092	33215	36283	
2638	0	36085	33204	36288	
2639	0	36108	33184	36290	
2640	0	36132	33174	36300	
2641	0	36136	33168	36278	
2642	0	36132	33178	36267	
2643	0	36160	33187	36256	
2644	0	36148	33186	36231	
2645	0	36152	33175	36226	
2646	0	36152	33152	36230	
2647	0	36146	33144	36226	
2648	0	36141	33140	36226	
2649	0	36130	33143	36199	
2650	0	36100	33125	36202	
2651	0	36076	33120	36191	
2652	0	36072	33117	36188	
2653	0	36064	33110	36196	
2654	0	36028	33101	36199	
2655	0	36000	33104	36204	
2656	0	35986	33100	36206	
2657	0	35954	33106	36200	
2658	0	35928	33095	36220	
2659	0	35920	33088	36231	
2660	0	35880	33085	36223	
2661	0	35890	33082	36231	
2662	0	35847	33091	36242	
2663	0	35820	33106	36231	
2664	0	35798	33107	36231	
2665	0	35800	33102	36238	
2666	0	35776	33110	36231	
2667	0	35762	33095	36248	
2668	0	35752	33105	36252	
2669	0	35745	33119	36263	
2670	0	35732	33107	36268	
2671	0	35716	33117	36282	
2672	0	35724	33110	36288	
2673	0	35718	33111	36292	
2674	0	35736	33116	36299	
2675	0	35740	33117	36302	
2676	0	35752	33111	36310	
2677	0	35740	33115	36324	
2678	0	35744	33127	36310	
2679	0	35750	33132	36316	
2680	0	35776	33142	36335	
2681	0	35754	33154	36332	
2682	0	35752	33159	36327	
2683	0	35752	33158	36327	
2684	0	35752	33159	36338	
2685	0	35748	33150	36359	
2686	0	35768	33158	36359	
2687	0	35762	33157	36384	
2688	0	35748	33170	36402	
2689	0	35764	33179	36416	
2690	0	35792	33182	36412	
2691	0	35812	33174	36434	
2692	0	35834	33182	36443	
2693	0	35865	33186	36453	
2694	0	35896	33174	36478	
2695	0	35896	33195	36482	
2696	0	35924	33191	36484	
2697	0	35938	33206	36465	
2698	0	35956	33213	36463	
2699	0	35962	33223	36458	
2700	0	35988	33221	36457	
2701	0	36014	33238	36460	
2702	0	36034	33229	36468	
2703	0	36064	33223	36463	
2704	0	36072	33239	36460	
2705	0	36112	33238	36458	
2706	0	36166	33236	36454	
2707	0	36192	33223	36456	
2708	0	36223	33234	36454	
2709	0	36256	33223	36469	
2710	0	36288	33212	36465	
2711	0	36304	33204	36460	
2712	0	36330	33188	36466	
2713	0	36346	33178	36458	
2714	0	36384	33179	36452	
2715	0	36396	33176	36452	
2716	0	36392	33180	36466	
2717	0	36392	33166	36468	
2718	0	36418	33159	36468	
2719	0	36436	33159	36468	
2720	0	36440	33174	36450	
2721	0	36452	33174	36430	
2722	0	36480	33166	36420	
2723	0	36456	33172	36422	
2724	0	36468	33159	36414	
2725	0	36455	33152	36407	
2726	0	36444	33168	36374	
2727	0	36430	33170	36349	
2728	0	36400	33172	36320	
2729	0	36404	33172	36306	
2730	0	36408	33180	36294	
2731	0	36396	33174	36290	
2732	0	36356	33184	36283	
2733	0	36312	33180	36268	
2734	0	36312	33168	36276	
2735	0	36292	33176	36270	
2736	0	36248	33174	36265	
2737	0	36220	33179	36263	
2738	0	36208	33181	36268	
2739	0	36167	33187	36257	
2740	0	36162	33193	36263	
2741	0	36150	33202	36268	
2742	0	36144	33189	36270	
2743	0	36132	33190	36284	
2744	0	36114	33202	36292	
2745	0	36076	33200	36288	
2746	0	36080	33204	36304	
2747	0	36061	33206	36295	
2748	0	36036	33217	36300	
2749	0	36036	33215	36292	
2750	0	36014	33195	36282	
2751	0	36016	33207	36278	
2752	0	36009	33218	36288	
2753	0	35996	33207	36282	
2754	0	35954	33215	36270	
2755	0	35952	33219	36260	
2756	0	35952	33226	36263	
2757	0	35943	33238	36252	
2758	0	35936	33223	36259	
2759	0	35920	33229	36252	
2760	0	35940	33230	36257	
2761	0	35922	33226	36252	
2762	0	35920	33223	36242	
2763	0	35890	33223	36231	
2764	0	35872	33223	36231	
2765	0	35884	33220	36231	
2766	0	35869	33210	36242	
2767	0	35892	33206	36226	
2768	0	35888	33223	36222	
2769	0	35886	33206	36230	
2770	0	35880	33206	36226	
2771	0	35896	33202	36216	
2772	0	35880	33204	36211	
2773	0	35888	33204	36204	
2774	0	35874	33210	36202	
2775	0	35868	33205	36198	
2776	0	35864	33203	36206	
2777	0	35856	33207	36208	
2778	0	35847	33206	36205	
2779	0	35856	33203	36211	
2780	0	35848	33212	36231	
2781	0	35847	33208	36250	
2782	0	35828	33211	36251	
2783	0	35834	33198	36273	
2784	0	35847	33187	36288	
2785	0	35842	33196	36295	
2786	0	35844	33189	36300	
2787	0	35832	33193	36312	
2788	0	35826	33176	36327	
2789	0	35816	33189	36328	
2790	0	35812	33202	36336	
2791	0	35792	33203	36334	
2792	0	35788	33209	36345	
2793	0	35784	33204	36358	
2794	0	35786	33210	36359	
2795	0	35802	33203	36372	
2796	0	35804	33209	36359	
2797	0	35795	33212	36359	
2798	0	35794	33220	36372	
2799	0	35824	33223	36359	
2800	0	35828	33212	36375	
2801	0	35836	33214	36372	
2802	0	35856	33203	36359	
2803	0	35846	33215	36375	
2804	0	35836	33229	36359	
2805	0	35847	33220	36378	
2806	0	35868	33223	36359	
2807	0	35866	33223	36359	
2808	0	35868	33234	36347	
2809	0	35870	33240	36350	
2810	0	35847	33236	36346	
2811	0	35840	33246	36332	
2812	0	35856	33248	36327	
2813	0	35834	33238	36319	
2814	0	35826	33246	36328	
2815	0	35822	33247	36322	
2816	0	35812	33228	36342	
2817	0	35812	33223	36348	
2818	0	35816	33234	36340	
2819	0	35794	33250	36320	
2820	0	35810	33256	36315	
2821	0	35812	33256	36318	
2822	0	35788	33255	36320	
2823	0	35794	33237	36326	
2824	0	35794	33238	36324	
2825	0	35794	33246	36315	
2826	0	35802	33251	36317	
2827	0	35812	33266	36310	
2828	0	35822	33264	36315	
2829	0	35834	33265	36304	
2830	0	35842	33261	36302	
2831	0	35862	33260	36295	
2832	0	35864	33257	36278	
2833	0	35888	33267	36271	
2834	0	35896	33250	36264	
2835	0	35952	33245	36264	
2836	0	35968	33262	36256	
2837	0	35994	33255	36259	
2838	0	35986	33255	36246	
2839	0	35992	33255	36246	
2840	0	36008	33255	36254	
2841	0	36020	33258	36260	
2842	0	36024	33242	36264	
2843	0	36014	33248	36262	
2844	0	36024	33250	36254	
2845	0	36013	33247	36255	
2846	0	36016	33248	36246	
2847	0	35998	33243	36253	
2848	0	35986	33260	36246	
2849	0	35995	33266	36248	
2850	0	35975	33255	36246	
2851	0	35952	33259	36250	
2852	0	35936	33261	36248	
2853	0	35898	33255	36242	
2854	0	35864	33256	36231	
2855	0	35832	33270	36228	
2856	0	35810	33274	36246	
2857	0	35812	33264	36238	
2858	0	35794	33266	36238	
2859	0	35800	33281	36228	
2860	0	35808	33270	36231	
2861	0	35810	33274	36246	
2862	0	35810	33271	36255	
2863	0	35816	33234	36279	
2864	0	35826	33252	36295	
2865	0	35828	33250	36303	
2866	0	35834	33252	36295	
2867	0	35847	33261	36311	
2868	0	35856	33258	36330	
2869	0	35868	33246	36339	
2870	0	35884	33257	36338	
2871	0	35901	33266	36345	
2872	0	35892	33264	36354	
2873	0	35888	33261	36376	
2874	0	35904	33240	36388	
2875	0	35912	33242	36374	
2876	0	35906	33238	36373	
2877	0	35892	33246	36380	
2878	0	35908	33245	36382	
2879	0	35898	33247	36380	
2880	0	35896	33229	36391	
2881	0	35906	33232	36382	
2882	0	35904	33223	36380	
2883	0	35892	33222	36388	
2884	0	35882	33216	36375	
2885	0	35876	33223	36359	
2886	0	35877	33210	36373	
2887	0	35888	33210	36359	
2888	0	35888	33221	36350	
2889	0	35888	33210	36338	
2890	0	35908	33202	36343	
2891	0	35896	33201	36334	
2892	0	35868	33202	36322	
2893	0	35864	33200	36318	
2894	0	35847	33216	36298	
2895	0	35844	33204	36298	
2896	0	35836	33211	36295	
2897	0	35832	33215	36295	
2898	0	35840	33206	36304	
2899	0	35847	33192	36312	
2900	0	35847	33190	36318	
2901	0	35872	33187	36304	
2902	0	35886	33199	36304	
2903	0	35879	33203	36295	
2904	0	35888	33198	36302	
2905	0	35884	33182	36314	
2906	0	35898	33180	36308	
2907	0	35900	33196	36311	
2908	0	35912	33202	36317	
2909	0	35916	33203	36328	
2910	0	35944	33204	36326	
2911	0	35964	33200	36332	
2912	0	35964	33201	36338	
2913	0	35960	33202	36336	
2914	0	35956	33208	36335	
2915	0	35954	33204	36347	
2916	0	35956	33220	36359	
2917	0	35948	33218	36377	
2918	0	35944	33224	36385	
2919	0	35960	33233	36381	
2920	0	35972	33235	36391	
2921	0	35984	33226	36391	
2922	0	35962	33221	36393	
2923	0	35982	33215	36396	
2924	0	36014	33216	36392	
2925	0	36028	33220	36418	
2926	0	36050	33211	36418	
2927	0	36060	33197	36430	
2928	0	36086	33198	36420	
2929	0	36106	33208	36431	
2930	0	36132	33192	36430	
2931	0	36134	33187	36428	
2932	0	36127	33184	36441	
2933	0	36141	33183	36442	
2934	0	36136	33194	36447	
2935	0	36140	33194	36444	
2936	0	36137	33192	36438	
2937	0	36152	33187	36430	
2938	0	36185	33192	36425	
2939	0	36200	33198	36420	
2940	0	36188	33200	36405	
2941	0	36172	33199	36402	
2942	0	36184	33194	36396	
2943	0	36166	33200	36382	
2944	0	36167	33207	36359	
2945	0	36180	33214	36359	
2946	0	36168	33222	36347	
2947	0	36168	33215	36338	
2948	0	36178	33223	36326	
2949	0	36174	33232	36305	
2950	0	36160	33238	36298	
2951	0	36160	33245	36294	
2952	0	36154	33246	36282	
2953	0	36146	33238	36278	
2954	0	36144	33228	36282	
2955	0	36130	33245	36276	
2956	0	36112	33259	36270	
2957	0	36100	33262	36268	
2958	0	36056	33271	36266	
2959	0	36066	33266	36274	
2960	0	36039	33266	36285	
2961	0	36026	33268	36290	
2962	0	36009	33266	36288	
2963	0	35988	33268	36295	
2964	0	35968	33255	36304	
2965	0	35946	33254	36316	
2966	0	35920	33259	36313	
2967	0	35914	33264	36318	
2968	0	35886	33262	36319	
2969	0	35856	33262	36310	
2970	0	35847	33273	36327	
2971	0	35842	33263	36334	
2972	0	35847	33256	36335	
2973	0	35862	33255	36334	
2974	0	35856	33248	36341	
2975	0	35847	33246	36322	
2976	0	35842	33228	36330	
2977	0	35836	33223	36338	
2978	0	35832	33215	36327	
2979	0	35824	33222	36324	
2980	0	35824	33220	36316	
2981	0	35836	33223	36306	
2982	0	35825	33222	36306	
2983	0	35840	33223	36311	
2984	0	35836	33221	36302	
2985	0	35847	33220	36302	
2986	0	35826	33215	36302	
2987	0	35860	33223	36294	
2988	0	35884	33223	36288	
2989	0	35879	33216	36306	
2990	0	35900	33222	36294	
2991	0	35876	33232	36286	
2992	0	35892	33221	36288	
2993	0	35898	33223	36278	
2994	0	35912	33214	36286	
2995	0	35924	33213	36288	
2996	0	35920	33223	36278	
2997	0	35930	33214	36268	
2998	0	35940	33214	36257	
2999	0	35940	33223	36258	
3000	0	35924	33224	36260	
3001	0	35924	33230	36268	
3002	0	35912	33234	36259	
3003	0	35932	33234	36250	
3004	0	35934	33234	36254	
3005	0	35946	33238	36263	
3006	0	35956	33239	36265	
3007	0	35954	33232	36288	
3008	0	35952	33223	36271	
3009	0	35956	33230	36287	
3010	0	35965	33238	36288	
3011	0	35944	33240	36288	
3012	0	35936	33232	36294	
3013	0	35922	33254	36290	
3014	0	35920	33252	36295	
3015	0	35924	33258	36290	
3016	0	35912	33256	36295	
3017	0	35920	33245	36310	
3018	0	35908	33248	36322	
3019	0	35900	33250	36326	
3020	0	35864	33260	36320	
3021	0	35877	33254	36330	
3022	0	35880	33244	36345	
3023	0	35884	33227	36356	
3024	0	35900	33231	36359	
3025	0	35892	33232	36359	
3026	0	35884	33240	36359	
3027	0	35877	33233	36359	
3028	0	35896	33234	36378	
3029	0	35898	33211	36388	
3030	0	35904	33212	36396	
3031	0	35908	33190	36418	
3032	0	35936	33170	36438	
3033	0	35942	33147	36443	
3034	0	35978	33152	36458	
3035	0	36002	33149	36454	
3036	0	36012	33154	36432	
3037	0	36018	33159	36422	
3038	0	36060	33159	36431	
3039	0	36068	33166	36412	
3040	0	36072	33174	36407	
3041	0	36086	33175	36397	
3042	0	36094	33171	36394	
3043	0	36112	33184	36389	
3044	0	36108	33180	36389	
3045	0	36144	33188	36375	
3046	0	36128	33193	36359	
3047	0	36128	33206	36340	
3048	0	36146	33211	36348	
3049	0	36160	33217	36327	
3050	0	36136	33223	36324	
3051	0	36141	33207	36319	
3052	0	36130	33223	36314	
3053	0	36140	33223	36294	
3054	0	36156	33216	36294	
3055	0	36168	33211	36285	
3056	0	36152	33200	36286	
3057	0	36148	33192	36295	
3058	0	36160	33188	36287	
3059	0	36154	33203	36263	
3060	0	36160	33186	36261	
3061	0	36128	33180	36246	
3062	0	36116	33182	36247	
3063	0	36093	33174	36231	
3064	0	36090	33185	36226	
3065	0	36088	33194	36231	
3066	0	36068	33195	36218	
3067	0	36096	33191	36230	
3068	0	36088	33191	36231	
3069	0	36080	33200	36230	
3070	0	36048	33202	36214	
3071	0	36056	33203	36226	
3072	0	36056	33201	36231	
3073	0	36054	33194	36242	
3074	0	36056	33216	36238	
3075	0	36064	33220	36244	
3076	0	36057	33216	36246	
3077	0	36036	33212	36246	
3078	0	36022	33207	36248	
3079	0	36036	33208	36250	
3080	0	36028	33219	36261	
3081	0	36026	33222	36268	
3082	0	36004	33239	36284	
3083	0	35998	33223	36299	
3084	0	35986	33238	36308	
3085	0	35999	33243	36304	
3086	0	35996	33238	36322	
3087	0	35976	33245	36329	
3088	0	35973	33240	36332	
3089	0	35978	33254	36327	
3090	0	35984	33243	36334	
3091	0	35962	33233	36334	
3092	0	35944	33227	36330	
3093	0	35940	33223	36334	
3094	0	35950	33231	36343	
3095	0	35948	33223	36328	
3096	0	35940	33230	36320	
3097	0	35936	33232	36314	
3098	0	35928	33232	36318	
3099	0	35932	33227	36313	
3100	0	35930	33223	36308	
3101	0	35935	33223	36324	
3102	0	35932	33223	36334	
3103	0	35942	33218	36336	
3104	0	35938	33223	36327	
3105	0	35952	33222	36326	
3106	0	35954	33223	36332	
3107	0	35942	33213	36341	
3108	0	35952	33222	36334	
3109	0	35936	33234	36326	
3110	0	35924	33252	36315	
3111	0	35917	33256	36322	
3112	0	35920	33257	36317	
3113	0	35916	33264	36311	
3114	0	35920	33254	36312	
3115	0	35908	33256	36325	
3116	0	35916	33240	36332	
3117	0	35940	33232	36336	
3118	0	35939	33230	36335	
3119	0	35950	33240	36336	
3120	0	35956	33242	36324	
3121	0	35964	33238	36328	
3122	0	36008	33223	36332	
3123	0	35992	33215	36334	
3124	0	36014	33222	36332	
3125	0	36026	33236	36326	
3126	0	35992	33238	36315	
3127	0	36024	33242	36300	
3128	0	36024	33243	36290	
3129	0	36032	33246	36294	
3130	0	36036	33243	36288	
3131	0	36060	33246	36279	
3132	0	36068	33245	36263	
3133	0	36056	33252	36264	
3134	0	36086	33262	36259	
3135	0	36100	33267	36231	
3136	0	36082	33268	36228	
3137	0	36072	33270	36222	
3138	0	36068	33266	36204	
3139	0	36066	33275	36190	
3140	0	36064	33271	36178	
3141	0	36040	33263	36174	
3142	0	36032	33263	36185	
3143	0	36016	33252	36193	
3144	0	36016	33250	36167	
3145	0	36040	33238	36178	
3146	0	36044	33235	36191	
3147	0	36078	33225	36206	
3148	0	36092	33221	36198	
3149	0	36082	33203	36214	
3150	0	36078	33206	36218	
3151	0	36096	33198	36230	
3152	0	36112	33204	36231	
3153	0	36132	33190	36247	
3154	0	36128	33190	36264	
3155	0	36133	33186	36276	
3156	0	36154	33192	36290	
3157	0	36188	33204	36290	
3158	0	36168	33199	36290	
3159	0	36160	33198	36292	
3160	0	36152	33202	36286	
3161	0	36144	33215	36286	
3162	0	36133	33208	36278	
3163	0	36112	33206	36278	
3164	0	36098	33217	36285	
3165	0	36072	33206	36284	
3166	0	36066	33212	36304	
3167	0	36048	33200	36306	
3168	0	36034	33206	36298	
3169	0	36008	33194	36306	
3170	0	35979	33206	36300	
3171	0	35970	33215	36298	
3172	0	35960	33207	36314	
3173	0	35949	33207	36324	
3174	0	35934	33208	36332	
3175	0	35940	33207	36341	
3176	0	35946	33205	36338	
3177	0	35928	33206	36349	
3178	0	35928	33207	36356	
3179	0	35920	33206	36352	
3180	0	35912	33216	36356	
3181	0	35940	33209	36373	
3182	0	35968	33191	36374	
3183	0	35964	33192	36373	
3184	0	35960	33190	36386	
3185	0	35952	33197	36394	
3186	0	35968	33203	36392	
3187	0	35968	33196	36410	
3188	0	35972	33194	36411	
3189	0	35975	33195	36398	
3190	0	35984	33204	36402	
3191	0	36016	33207	36398	
3192	0	36050	33208	36392	
3193	0	36052	33223	36384	
3194	0	36052	33219	36374	
3195	0	36080	33205	36374	
3196	0	36072	33212	36359	
3197	0	36050	33207	36355	
3198	0	36072	33223	36335	
3199	0	36080	33236	36342	
3200	0	36104	33238	36323	
3201	0	36104	33232	36327	
3202	0	36114	33236	36333	
3203	0	36104	33238	36341	
3204	0	36112	33241	36329	
3205	0	36136	33255	36332	
3206	0	36125	33255	36319	
3207	0	36114	33261	36312	
3208	0	36116	33250	36316	
3209	0	36106	33268	36302	
3210	0	36122	33257	36295	
3211	0	36098	33251	36288	
3212	0	36098	33261	36279	
3213	0	36114	33260	36267	
3214	0	36080	33238	36262	
3215	0	36081	33250	36250	
3216	0	36084	33256	36231	
3217	0	36102	33248	36231	
3218	0	36061	33229	36242	
3219	0	36044	33241	36230	
3220	0	36016	33245	36231	
3221	0	36000	33240	36242	
3222	0	35984	33239	36231	
3223	0	35954	33238	36231	
3224	0	35942	33245	36226	
3225	0	35926	33249	36216	
3226	0	35920	33254	36215	
3227	0	35916	33264	36224	
3228	0	35935	33259	36226	
3229	0	35908	33274	36219	
3230	0	35920	33279	36219	
3231	0	35928	33283	36215	
3232	0	35912	33279	36222	
3233	0	35900	33268	36231	
3234	0	35882	33264	36231	
3235	0	35901	33253	36243	
3236	0	35876	33274	36254	
3237	0	35892	33268	36261	
3238	0	35880	33256	36261	
3239	0	35896	33271	36274	
3240	0	35896	33262	36266	
3241	0	35936	33269	36282	
3242	0	35940	33258	36279	
3243	0	35945	33254	36286	
3244	0	35948	33238	36291	
3245	0	35960	33232	36286	
3246	0	36000	33243	36282	
3247	0	36012	33247	36276	
3248	0	36008	33250	36279	
3249	0	36009	33242	36295	
3250	0	36020	33246	36290	
3251	0	36008	33240	36290	
3252	0	36004	33240	36274	
3253	0	36008	33235	36270	
3254	0	35996	33231	36269	
3255	0	35975	33223	36271	
3256	0	35968	33238	36253	
3257	0	35984	33230	36263	
3258	0	36012	33213	36266	
3259	0	36016	33223	36260	
3260	0	36032	33220	36274	
3261	0	36056	33223	36252	
3262	0	36056	33223	36268	
3263	0	36067	33221	36270	
3264	0	36086	33223	36270	
3265	0	36078	33206	36264	
3266	0	36094	33216	36266	
3267	0	36108	33218	36268	
3268	0	36136	33223	36270	
3269	0	36143	33223	36257	
3270	0	36152	33223	36265	
3271	0	36176	33234	36271	
3272	0	36192	33232	36278	
3273	0	36188	33234	36276	
3274	0	36192	33223	36254	
3275	0	36182	33241	36254	
3276	0	36212	33238	36252	
3277	0	36204	33234	36253	
3278	0	36193	33240	36250	
3279	0	36174	33252	36231	
3280	0	36156	33255	36216	
3281	0	36140	33250	36227	
3282	0	36120	33251	36210	
3283	0	36104	33262	36200	
3284	0	36101	33272	36191	
3285	0	36084	33254	36192	
3286	0	36048	33270	36180	
3287	0	36036	33259	36191	
3288	0	36040	33246	36198	
3289	0	36036	33251	36176	
3290	0	36052	33238	36188	
3291	0	36072	33241	36182	
3292	0	36072	33236	36192	
3293	0	36056	33228	36193	
3294	0	36054	33234	36204	
3295	0	36032	33223	36220	
3296	0	36034	33230	36230	
3297	0	36026	33215	36255	
3298	0	36034	33218	36250	
3299	0	36056	33223	36247	
3300	0	36038	33212	36252	
3301	0	36022	33208	36278	
3302	0	36020	33206	36294	
3303	0	36018	33213	36290	
3304	0	36012	33210	36295	
3305	0	36032	33204	36299	
3306	0	36069	33200	36314	
3307	0	36064	33203	36311	
3308	0	36056	33207	36302	
3309	0	36043	33202	36304	
3310	0	36034	33202	36312	
3311	0	36016	33210	36308	
3312	0	36000	33218	36295	
3313	0	36020	33214	36310	
3314	0	36001	33230	36306	
3315	0	35996	33221	36310	
3316	0	35984	33223	36323	
3317	0	35964	33223	36330	
3318	0	35970	33232	36326	
3319	0	35976	33215	36348	
3320	0	35972	33222	36342	
3321	0	35964	33215	36352	
3322	0	35954	33209	36359	
3323	0	35958	33214	36359	
3324	0	35944	33218	36359	
3325	0	35975	33223	36342	
3326	0	35988	33228	36340	
3327	0	35988	33223	36336	
3328	0	36000	33219	36338	
3329	0	36022	33218	36331	
3330	0	36024	33222	36330	
3331	0	36016	33223	36328	
3332	0	36012	33208	36344	
3333	0	35988	33206	36348	
3334	0	35990	33206	36350	
3335	0	35980	33206	36348	
3336	0	36000	33210	36354	
3337	0	36016	33214	36356	
3338	0	35996	33213	36351	
3339	0	35994	33223	36340	
3340	0	35994	33212	36354	
3341	0	35986	33213	36349	
3342	0	35978	33230	36338	
3343	0	35980	33214	36327	
3344	0	35986	33214	36332	
3345	0	35992	33227	36322	
3346	0	35984	33223	36320	
3347	0	35981	33209	36327	
3348	0	36000	33223	36326	
3349	0	35992	33202	36334	
3350	0	36000	33210	36316	
3351	0	36005	33214	36319	
3352	0	36012	33220	36306	
3353	0	36004	33216	36306	
3354	0	36036	33215	36295	
3355	0	36058	33216	36295	
3356	0	36064	33223	36283	
3357	0	36056	33223	36278	
3358	0	36060	33223	36271	
3359	0	36046	33222	36266	
3360	0	36076	33208	36279	
3361	0	36066	33223	36258	
3362	0	36054	33211	36271	
3363	0	36056	33216	36278	
3364	0	36072	33221	36263	
3365	0	36080	33223	36263	
3366	0	36076	33223	36250	
3367	0	36056	33223	36256	
3368	0	36044	33242	36246	
3369	0	36056	33248	36255	
3370	0	36068	33254	36250	
3371	0	36070	33248	36269	
3372	0	36068	33244	36258	
3373	0	36058	33254	36256	
3374	0	36082	33235	36264	
3375	0	36064	33223	36274	
3376	0	36054	33229	36274	
3377	0	36050	33230	36274	
3378	0	36045	33220	36271	
3379	0	36042	33223	36261	
3380	0	36040	33218	36268	
3381	0	36054	33223	36261	
3382	0	36064	33216	36258	
3383	0	36058	33207	36260	
3384	0	36078	33184	36271	
3385	0	36096	33190	36250	
3386	0	36086	33184	36254	
3387	0	36126	33178	36265	
3388	0	36128	33183	36281	
3389	0	36148	33172	36279	
3390	0	36162	33159	36290	
3391	0	36184	33159	36299	
3392	0	36184	33152	36303	
3393	0	36186	33159	36281	
3394	0	36192	33170	36284	
3395	0	36216	33170	36290	
3396	0	36193	33174	36283	
3397	0	36188	33170	36282	
3398	0	36180	33170	36279	
3399	0	36176	33170	36278	
3400	0	36176	33178	36282	
3401	0	36150	33183	36272	
3402	0	36137	33177	36272	
3403	0	36153	33191	36257	
3404	0	36162	33176	36269	
3405	0	36148	33189	36263	
3406	0	36104	33192	36264	
3407	0	36084	33190	36280	
3408	0	36066	33188	36290	
3409	0	36070	33193	36288	
3410	0	36042	33188	36290	
3411	0	36056	33188	36314	
3412	0	36056	33195	36328	
3413	0	36016	33202	36340	
3414	0	36026	33206	36338	
3415	0	36038	33192	36359	
3416	0	36028	33190	36380	
3417	0	36012	33197	36388	
3418	0	36006	33192	36393	
3419	0	35984	33194	36396	
3420	0	35984	33195	36390	
3421	0	36002	33190	36402	
3422	0	35996	33193	36400	
3423	0	35992	33191	36404	
3424	0	35986	33202	36396	
3425	0	35990	33194	36406	
3426	0	35992	33190	36400	
3427	0	35984	33198	36392	
3428	0	35975	33193	36399	
3429	0	35992	33185	36396	
3430	0	35984	33192	36395	
3431	0	35996	33198	36380	
3432	0	35974	33191	36388	
3433	0	35968	33198	36388	
3434	0	35993	33198	36378	
3435	0	35975	33220	36359	
3436	0	35972	33223	36359	
3437	0	35970	33228	36348	
3438	0	35968	33243	36338	
3439	0	35960	33250	36338	
3440	0	35944	33251	36316	
3441	0	35968	33240	36322	
3442	0	35975	33259	36304	
3443	0	35966	33256	36290	
3444	0	35970	33246	36304	
3445	0	35957	33251	36295	
3446	0	35974	33256	36290	
3447	0	35992	33242	36284	
3448	0	35980	33266	36271	
3449	0	35980	33250	36272	
3450	0	35977	33267	36269	
3451	0	35975	33270	36263	
3452	0	35972	33272	36263	
3453	0	36002	33278	36257	
3454	0	36004	33267	36270	
3455	0	36012	33271	36258	
3456	0	35996	33267	36246	
3457	0	35984	33264	36231	
3458	0	35992	33255	36246	
3459	0	36004	33254	36246	
3460	0	36012	33250	36231	
3461	0	36014	33243	36230	
3462	0	36024	33234	36231	
3463	0	36018	33245	36208	
3464	0	36034	33232	36208	
3465	0	36026	33239	36206	
3466	0	36032	33238	36206	
3467	0	36020	33233	36215	
3468	0	36026	33245	36206	
3469	0	36039	33251	36213	
3470	0	36012	33243	36200	
3471	0	36009	33238	36200	
3472	0	36014	33234	36200	
3473	0	36024	33250	36201	
3474	0	36052	33254	36204	
3475	0	36038	33265	36204	
3476	0	36056	33264	36182	
3477	0	36060	33271	36180	
3478	0	36050	33270	36180	
3479	0	36034	33264	36183	
3480	0	36056	33260	36190	
3481	0	36036	33276	36183	
3482	0	36024	33268	36198	
3483	0	35997	33259	36204	
3484	0	35968	33263	36198	
3485	0	35940	33267	36204	
3486	0	35944	33275	36199	
3487	0	35933	33264	36182	
3488	0	35926	33260	36188	
3489	0	35924	33258	36188	
3490	0	35914	33257	36205	
3491	0	35900	33263	36191	
3492	0	35892	33258	36196	
3493	0	35880	33270	36199	
3494	0	35899	33252	36204	
3495	0	35884	33250	36210	
3496	0	35872	33250	36222	
3497	0	35876	33237	36218	
3498	0	35872	33233	36231	
3499	0	35880	33236	36231	
3500	0	35904	33238	36242	
3501	0	35904	33228	36253	
3502	0	35915	33230	36265	
3503	0	35921	33223	36276	
3504	0	35928	33223	36294	
3505	0	35936	33220	36302	
3506	0	35936	33220	36315	
3507	0	35954	33230	36317	
3508	0	35940	33223	36310	
3509	0	35924	33220	36315	
3510	0	35924	33210	36330	
3511	0	35932	33208	36329	
3512	0	35920	33223	36321	
3513	0	35944	33223	36327	
3514	0	35956	33223	36324	
3515	0	35960	33232	36322	
3516	0	35964	33229	36326	
3517	0	35962	33230	36326	
3518	0	35962	33238	36320	
3519	0	35972	33236	36313	
3520	0	35992	33232	36306	
3521	0	35984	33238	36291	
3522	0	35968	33252	36281	
3523	0	35974	33247	36278	
3524	0	35984	33251	36272	
3525	0	35994	33247	36265	
3526	0	35992	33239	36265	
3527	0	36004	33238	36264	
3528	0	36005	33246	36261	
3529	0	36000	33234	36248	
3530	0	35978	33241	36231	
3531	0	35984	33236	36242	
3532	0	35974	33228	36231	
3533	0	35984	33236	36231	
3534	0	35972	33239	36228	
3535	0	35984	33230	36231	
3536	0	35986	33232	36226	
3537	0	35972	33232	36230	
3538	0	35960	33232	36231	
3539	0	35960	33234	36243	
3540	0	35956	33234	36231	
3541	0	35984	33247	36242	
3542	0	36006	33232	36246	
3543	0	35988	33234	36250	
3544	0	35984	33238	36240	
3545	0	36004	33240	36252	
3546	0	36032	33235	36252	
3547	0	36044	33229	36255	
3548	0	36088	33227	36263	
3549	0	36082	33231	36252	
3550	0	36058	33220	36262	
3551	0	36082	33227	36268	
3552	0	36080	33223	36279	
3553	0	36090	33236	36264	
3554	0	36092	33244	36260	
3555	0	36082	33254	36260	
3556	0	36082	33261	36274	
3557	0	36092	33251	36264	
3558	0	36086	33261	36274	
3559	0	36066	33248	36274	
3560	0	36078	33246	36272	
3561	0	36057	33248	36285	
3562	0	36064	33247	36298	
3563	0	36059	33238	36306	
3564	0	36082	33230	36315	
3565	0	36044	33251	36306	
3566	0	36048	33243	36304	
3567	0	36057	33243	36306	
3568	0	36064	33245	36316	
3569	0	36080	33223	36318	
3570	0	36061	33223	36320	
3571	0	36068	33234	36300	
3572	0	36084	33223	36310	
3573	0	36094	33234	36288	
3574	0	36112	33234	36294	
3575	0	36120	33223	36295	
3576	0	36118	33231	36294	
3577	0	36126	33234	36288	
3578	0	36120	33230	36279	
3579	0	36140	33251	36272	
3580	0	36136	33239	36264	
3581	0	36112	33248	36269	
3582	0	36130	33257	36258	
3583	0	36128	33258	36275	
3584	0	36104	33279	36279	
3585	0	36108	33271	36266	
3586	0	36095	33264	36278	
3587	0	36092	33264	36264	
3588	0	36106	33270	36262	
3589	0	36122	33274	36274	
3590	0	36120	33263	36271	
3591	0	36120	33263	36279	
3592	0	36092	33252	36282	
3593	0	36112	33250	36278	
3594	0	36094	33260	36269	
3595	0	36112	33267	36274	
3596	0	36092	33253	36270	
3597	0	36097	33262	36270	
3598	0	36096	33266	36276	
3599	0	36128	33253	36264	
3600	0	36132	33254	36275	
3601	0	36116	33256	36264	
3602	0	36128	33254	36261	
3603	0	36124	33248	36274	
3604	0	36120	33240	36280	
3605	0	36121	33245	36271	
3606	0	36096	33241	36279	
3607	0	36068	33235	36264	
3608	0	36076	33245	36268	
3609	0	36067	33247	36262	
3610	0	36048	33233	36278	
3611	0	36056	33228	36279	
3612	0	36046	33235	36273	
3613	0	36026	33230	36271	
3614	0	36020	33222	36264	
3615	0	36016	33223	36282	
3616	0	36012	33221	36278	
3617	0	36002	33212	36281	
3618	0	36004	33216	36278	
3619	0	35980	33201	36279	
3620	0	35975	33210	36278	
3621	0	35982	33207	36288	
3622	0	35987	33222	36283	
3623	0	35980	33213	36290	
3624	0	35960	33202	36303	
3625	0	35920	33202	36296	
3626	0	35924	33213	36313	
3627	0	35928	33208	36312	
3628	0	35942	33202	36324	
3629	0	35936	33186	36343	
3630	0	35944	33200	36346	
3631	0	35960	33194	36342	
3632	0	35974	33198	36338	
3633	0	35962	33191	36350	
3634	0	35958	33187	36358	
3635	0	35952	33201	36336	
3636	0	35944	33180	36340	
3637	0	35956	33202	36326	
3638	0	35930	33200	36327	
3639	0	35938	33200	36307	
3640	0	35956	33215	36304	
3641	0	35960	33215	36292	
3642	0	35946	33213	36295	
3643	0	35932	33234	36282	
3644	0	35912	33220	36282	
3645	0	35948	33222	36272	
3646	0	35938	33218	36275	
3647	0	35968	33238	36256	
3648	0	35975	33228	36272	
3649	0	35992	33223	36262	
3650	0	35992	33223	36263	
3651	0	35996	33220	36264	
3652	0	35992	33210	36269	
3653	0	36002	33213	36254	
3654	0	36004	33211	36263	
3655	0	36012	33220	36255	
3656	0	36020	33221	36244	
3657	0	36044	33207	36252	
3658	0	36044	33220	36255	
3659	0	36034	33221	36263	
3660	0	36038	33220	36263	
3661	0	36054	33220	36269	
3662	0	36056	33213	36268	
3663	0	36064	33207	36264	
3664	0	36060	33211	36271	
3665	0	36060	33215	36246	
3666	0	36064	33218	36251	
3667	0	36048	33215	36255	
3668	0	36052	33206	36247	
3669	0	36057	33207	36252	
3670	0	36068	33217	36255	
3671	0	36060	33223	36260	
3672	0	36060	33218	36261	
3673	0	36056	33217	36274	
3674	0	36080	33210	36274	
3675	0	36096	33220	36266	
3676	0	36068	33223	36282	
3677	0	36072	33222	36302	
3678	0	36068	33220	36298	
3679	0	36048	33223	36314	
3680	0	36028	33223	36310	
3681	0	35998	33234	36312	
3682	0	35984	33238	36311	
3683	0	35972	33232	36302	
3684	0	35948	33223	36307	
3685	0	35975	33230	36311	
3686	0	35992	33222	36302	
3687	0	35960	33208	36319	
3688	0	35936	33223	36308	
3689	0	35936	33208	36316	
3690	0	35944	33218	36315	
3691	0	35936	33203	36317	
3692	0	35940	33206	36328	
3693	0	35940	33207	36321	
3694	0	35964	33206	36317	
3695	0	35968	33209	36327	
3696	0	35976	33212	36335	
3697	0	35984	33229	36332	
3698	0	35984	33223	36333	
3699	0	36020	33239	36326	
3700	0	36014	33223	36320	
3701	0	36028	33223	36330	
3702	0	36046	33238	36330	
3703	0	36058	33250	36326	
3704	0	36084	33240	36326	
3705	0	36096	33234	36338	
3706	0	36098	33244	36336	
3707	0	36104	33240	36329	
3708	0	36104	33241	36322	
3709	0	36122	33243	36321	
3710	0	36156	33254	36294	
3711	0	36144	33248	36290	
3712	0	36120	33258	36264	
3713	0	36124	33255	36267	
3714	0	36128	33255	36263	
3715	0	36148	33267	36260	
3716	0	36132	33259	36264	
3717	0	36124	33267	36256	
3718	0	36140	33273	36253	
3719	0	36124	33268	36246	
3720	0	36114	33257	36256	
3721	0	36136	33255	36231	
3722	0	36160	33262	36210	
3723	0	36168	33257	36198	
3724	0	36176	33265	36192	
3725	0	36166	33262	36199	
3726	0	36156	33263	36194	
3727	0	36166	33258	36184	
3728	0	36152	33252	36193	
3729	0	36148	33252	36201	
3730	0	36150	33260	36194	
3731	0	36154	33265	36199	
3732	0	36156	33268	36188	
3733	0	36153	33256	36206	
3734	0	36152	33257	36214	
3735	0	36124	33270	36218	
3736	0	36156	33260	36208	
3737	0	36141	33274	36197	
3738	0	36122	33265	36210	
3739	0	36106	33272	36196	
3740	0	36104	33267	36182	
3741	0	36122	33263	36198	
3742	0	36120	33256	36191	
3743	0	36128	33266	36193	
3744	0	36106	33264	36196	
3745	0	36093	33276	36206	
3746	0	36086	33277	36205	
3747	0	36078	33281	36230	
3748	0	36092	33275	36231	
3749	0	36076	33263	36240	
3750	0	36072	33269	36231	
3751	0	36076	33278	36230	
3752	0	36076	33285	36219	
3753	0	36068	33281	36224	
3754	0	36078	33264	36243	
3755	0	36068	33274	36231	
3756	0	36060	33282	36230	
3757	0	36064	33279	36224	
3758	0	36044	33268	36226	
3759	0	36039	33264	36230	
3760	0	36032	33262	36226	
3761	0	36032	33256	36240	
3762	0	36012	33259	36231	
3763	0	35992	33255	36246	
3764	0	35988	33250	36246	
3765	0	35960	33235	36247	
3766	0	35956	33245	36256	
3767	0	35940	33232	36274	
3768	0	35928	33230	36278	
3769	0	35935	33223	36290	
3770	0	35962	33220	36294	
3771	0	35990	33213	36298	
3772	0	35974	33215	36304	
3773	0	35984	33215	36307	
3774	0	36004	33217	36306	
3775	0	36006	33213	36312	
3776	0	35986	33216	36326	
3777	0	35968	33214	36333	
3778	0	35956	33223	36330	
3779	0	35948	33247	36320	
3780	0	35944	33236	36330	
3781	0	35936	33242	36324	
3782	0	35928	33250	36317	
3783	0	35928	33254	36295	
3784	0	35930	33254	36302	
3785	0	35960	33242	36302	
3786	0	35957	33239	36296	
3787	0	35972	33236	36290	
3788	0	35982	33234	36286	
3789	0	35988	33250	36260	
3790	0	36000	33238	36259	
3791	0	36008	33228	36246	
3792	0	36020	33223	36244	
3793	0	36033	33228	36231	
3794	0	36046	33236	36222	
3795	0	36050	33232	36208	
3796	0	36056	33229	36208	
3797	0	36066	33232	36189	
3798	0	36072	33234	36180	
3799	0	36092	33243	36167	
3800	0	36072	33236	36152	
3801	0	36092	33234	36157	
3802	0	36080	33234	36148	
3803	0	36082	33247	36137	
3804	0	36080	33247	36145	
3805	0	36068	33254	36133	
3806	0	36052	33247	36150	
3807	0	36052	33223	36163	
3808	0	36045	33223	36157	
3809	0	36032	33223	36158	
3810	0	36020	33223	36163	
3811	0	36016	33233	36167	
3812	0	36012	33238	36170	
3813	0	36004	33232	36186	
3814	0	36012	33247	36197	
3815	0	36000	33232	36214	
3816	0	36012	33228	36211	
3817	0	35984	33235	36226	
3818	0	36000	33247	36231	
3819	0	35984	33240	36261	
3820	0	35988	33238	36286	
3821	0	35986	33234	36287	
3822	0	35972	33235	36298	
3823	0	35992	33235	36305	
3824	0	35984	33232	36328	
3825	0	36012	33224	36338	
3826	0	35996	33222	36348	
3827	0	35992	33215	36348	
3828	0	36004	33218	36343	
3829	0	35978	33223	36344	
3830	0	35992	33212	36354	
3831	0	36008	33217	36346	
3832	0	36022	33216	36338	
3833	0	36012	33209	36345	
3834	0	36016	33213	36334	
3835	0	36002	33223	36329	
3836	0	36004	33230	36329	
3837	0	36012	33228	36314	
3838	0	36020	33223	36312	
3839	0	36012	33223	36298	
3840	0	36042	33223	36298	
3841	0	36066	33222	36284	
3842	0	36077	33223	36286	
3843	0	36110	33229	36278	
3844	0	36104	33234	36270	
3845	0	36108	33223	36271	
3846	0	36130	33232	36276	
3847	0	36128	33231	36260	
3848	0	36132	33223	36272	
3849	0	36144	33216	36272	
3850	0	36132	33223	36261	
3851	0	36146	33230	36242	
3852	0	36158	33223	36242	
3853	0	36152	33228	36231	
3854	0	36152	33236	36248	
3855	0	36123	33231	36252	
3856	0	36124	33234	36240	
3857	0	36120	33223	36231	
3858	0	36114	33219	36244	
3859	0	36120	33222	36246	
3860	0	36092	33232	36242	
3861	0	36052	33247	36222	
3862	0	36059	33238	36236	
3863	0	36027	33234	36238	
3864	0	36044	33247	36231	
3865	0	36032	33228	36238	
3866	0	36024	33231	36244	
3867	0	36024	33223	36256	
3868	0	36015	33220	36252	
3869	0	36004	33223	36263	
3870	0	36000	33202	36259	
3871	0	35992	33202	36268	
3872	0	35982	33197	36268	
3873	0	36002	33195	36272	
3874	0	35968	33190	36272	
3875	0	35988	33187	36269	
3876	0	35992	33179	36295	
3877	0	35974	33180	36295	
3878	0	35992	33175	36312	
3879	0	35986	33181	36313	
3880	0	35956	33171	36330	
3881	0	35970	33175	36352	
3882	0	35950	33159	36359	
3883	0	35968	33174	36359	
3884	0	35948	33170	36380	
3885	0	35952	33159	36394	
3886	0	35962	33166	36408	
3887	0	35935	33150	36408	
3888	0	35928	33159	36415	
3889	0	35906	33159	36419	
3890	0	35906	33170	36426	
3891	0	35906	33170	36430	
3892	0	35917	33186	36428	
3893	0	35932	33185	36410	
3894	0	35930	33210	36397	
3895	0	35936	33197	36390	
3896	0	35936	33202	36405	
3897	0	35928	33198	36393	
3898	0	35942	33201	36386	
3899	0	35932	33207	36359	
3900	0	35942	33200	36359	
3901	0	35933	33202	36338	
3902	0	35968	33194	36326	
3903	0	35984	33209	36324	
3904	0	36004	33210	36308	
3905	0	36004	33206	36278	
3906	0	36024	33209	36288	
3907	0	36032	33216	36259	
3908	0	36048	33214	36261	
3909	0	36072	33210	36252	
3910	0	36074	33212	36255	
3911	0	36066	33211	36240	
3912	0	36108	33218	36228	
3913	0	36108	33226	36230	
3914	0	36128	33242	36208	
3915	0	36148	33250	36212	
3916	0	36156	33263	36202	
3917	0	36176	33260	36199	
3918	0	36178	33257	36191	
3919	0	36193	33254	36182	
3920	0	36231	33275	36176	
3921	0	36212	33278	36160	
3922	0	36209	33270	36154	
3923	0	36212	33275	36136	
3924	0	36218	33287	36128	
3925	0	36231	33287	36119	
3926	0	36192	33287	36103	
3927	0	36167	33287	36092	
3928	0	36148	33287	36096	
3929	0	36148	33287	36103	
3930	0	36137	33287	36118	
3931	0	36124	33287	36112	
3932	0	36120	33310	36119	
3933	0	36110	33306	36110	
3934	0	36108	33309	36125	
3935	0	36100	33300	36142	
3936	0	36084	33306	36162	
3937	0	36088	33313	36144	
3938	0	36100	33296	36162	
3939	0	36096	33287	36167	
3940	0	36092	33287	36178	
3941	0	36088	33287	36183	
3942	0	36074	33306	36178	
3943	0	36076	33311	36188	
3944	0	36082	33316	36176	
3945	0	36074	33287	36172	
3946	0	36076	33287	36169	
3947	0	36072	33287	36163	
3948	0	36068	33287	36178	
3949	0	36052	33286	36179	
3950	0	36044	33278	36198	
3951	0	36036	33266	36212	
3952	0	36054	33264	36219	
3953	0	36064	33258	36230	
3954	0	36074	33256	36244	
3955	0	36058	33255	36242	
3956	0	36068	33258	36261	
3957	0	36092	33270	36265	
3958	0	36104	33263	36282	
3959	0	36082	33262	36292	
3960	0	36064	33259	36298	
3961	0	36052	33262	36306	
3962	0	36004	33250	36312	
3963	0	35968	33251	36305	
3964	0	35956	33251	36295	
3965	0	35916	33251	36293	
3966	0	35936	33257	36264	
3967	0	35936	33262	36231	
3968	0	35948	33266	36219	
3969	0	35938	33275	36180	
3970	0	35952	33271	36168	
3971	0	35970	33287	36150	
3972	0	35992	33284	36142	
3973	0	36008	33278	36140	
3974	0	36016	33270	36152	
3975	0	36006	33268	36177	
3976	0	36037	33256	36199	
3977	0	36054	33244	36218	
3978	0	36044	33254	36238	
3979	0	36016	33242	36262	
3980	0	35980	33236	36295	
3981	0	35964	33242	36324	
3982	0	35952	33233	36336	
3983	0	35962	33223	36348	
3984	0	35928	33217	36359	
3985	0	35928	33220	36359	
3986	0	35928	33218	36373	
3987	0	35918	33207	36359	
3988	0	35934	33202	36354	
3989	0	35922	33194	36347	
3990	0	35924	33191	36330	
3991	0	35913	33201	36322	
3992	0	35894	33200	36306	
3993	0	35912	33205	36294	
3994	0	35926	33203	36283	
3995	0	35936	33203	36268	
3996	0	35964	33206	36267	
3997	0	35984	33206	36268	
3998	0	36006	33202	36276	
3999	0	36004	33200	36265	
4000	0	35990	33207	36257	
4001	0	35984	33206	36260	
4002	0	35992	33206	36250	
4003	0	36000	33212	36255	
4004	0	36004	33222	36250	
4005	0	36026	33223	36251	
4006	0	36040	33232	36240	
4007	0	36024	33243	36239	
4008	0	36036	33251	36240	
4009	0	36048	33233	36251	
4010	0	36069	33217	36258	
4011	0	36082	33223	36246	
4012	0	36073	33208	36254	
4013	0	36068	33211	36240	
4014	0	36078	33211	36246	
4015	0	36081	33211	36242	
4016	0	36090	33209	36230	
4017	0	36108	33209	36231	
4018	0	36090	33204	36224	
4019	0	36100	33208	36231	
4020	0	36084	33215	36231	
4021	0	36104	33217	36230	
4022	0	36097	33213	36220	
4023	0	36076	33219	36220	
4024	0	36096	33218	36224	
4025	0	36096	33215	36230	
4026	0	36090	33223	36231	
4027	0	36084	33223	36230	
4028	0	36084	33232	36246	
4029	0	36086	33229	36246	
4030	0	36076	33218	36263	
4031	0	36086	33209	36282	
4032	0	36092	33218	36274	
4033	0	36092	33212	36293	
4034	0	36090	33212	36280	
4035	0	36080	33213	36295	
4036	0	36090	33220	36292	
4037	0	36108	33215	36280	
4038	0	36104	33215	36282	
4039	0	36090	33211	36278	
4040	0	36096	33192	36300	
4041	0	36096	33191	36290	
4042	0	36092	33189	36310	
4043	0	36104	33189	36296	
4044	0	36114	33174	36310	
4045	0	36114	33179	36302	
4046	0	36137	33170	36310	
4047	0	36148	33174	36314	
4048	0	36144	33168	36311	
4049	0	36141	33152	36320	
4050	0	36150	33170	36324	
4051	0	36152	33159	36321	
4052	0	36146	33156	36326	
4053	0	36136	33159	36327	
4054	0	36164	33174	36332	
4055	0	36152	33186	36333	
4056	0	36164	33175	36352	
4057	0	36164	33170	36352	
4058	0	36182	33191	36352	
4059	0	36196	33208	36351	
4060	0	36178	33194	36357	
4061	0	36184	33204	36355	
4062	0	36196	33208	36344	
4063	0	36196	33209	36347	
4064	0	36172	33218	36348	
4065	0	36186	33215	36336	
4066	0	36170	33223	36322	
4067	0	36140	33227	36311	
4068	0	36140	33231	36319	
4069	0	36128	33239	36319	
4070	0	36128	33234	36306	
4071	0	36114	33234	36299	
4072	0	36133	33223	36288	
4073	0	36160	33221	36283	
4074	0	36160	33232	36263	
4075	0	36130	33223	36256	
4076	0	36128	33220	36247	
4077	0	36114	33216	36250	
4078	0	36120	33210	36218	
4079	0	36128	33217	36204	
4080	0	36140	33212	36211	
4081	0	36124	33223	36202	
4082	0	36115	33238	36200	
4083	0	36104	33241	36200	
4084	0	36076	33240	36207	
4085	0	36088	33242	36223	
4086	0	36092	33229	36240	
4087	0	36120	33235	36231	
4088	0	36110	33250	36230	
4089	0	36098	33250	36231	
4090	0	36120	33257	36249	
4091	0	36120	33259	36246	
4092	0	36122	33263	36257	
4093	0	36136	33248	36263	
4094	0	36148	33257	36263	
4095	0	36160	33259	36268	
4096	0	36168	33244	36253	
4097	0	36168	33244	36244	
4098	0	36164	33254	36237	
4099	0	36168	33248	36231	
4100	0	36148	33237	36231	
4101	0	36144	33218	36238	
4102	0	36116	33220	36231	
4103	0	36093	33217	36231	
4104	0	36123	33228	36219	
4105	0	36098	33215	36226	
4106	0	36096	33216	36230	
4107	0	36096	33223	36224	
4108	0	36092	33222	36222	
4109	0	36061	33212	36230	
4110	0	36066	33227	36231	
4111	0	36070	33242	36231	
4112	0	36068	33232	36231	
4113	0	36058	33222	36231	
4114	0	36034	33234	36231	
4115	0	36026	33239	36242	
4116	0	36024	33238	36244	
4117	0	36034	33238	36237	
4118	0	36032	33240	36247	
4119	0	36013	33255	36240	
4120	0	35986	33262	36248	
4121	0	35978	33255	36254	
4122	0	35976	33259	36255	
4123	0	36006	33266	36257	
4124	0	36014	33267	36260	
4125	0	36022	33266	36266	
4126	0	36016	33261	36264	
4127	0	36009	33254	36271	
4128	0	36018	33251	36268	
4129	0	36000	33264	36276	
4130	0	36016	33279	36254	
4131	0	36012	33266	36254	
4132	0	36016	33261	36244	
4133	0	36002	33260	36231	
4134	0	35996	33255	36240	
4135	0	35992	33263	36246	
4136	0	35976	33259	36231	
4137	0	35968	33247	36242	
4138	0	35970	33265	36231	
4139	0	35962	33270	36228	
4140	0	35964	33261	36255	
4141	0	35970	33275	36247	
4142	0	35965	33275	36251	
4143	0	35974	33268	36256	
4144	0	35964	33276	36260	
4145	0	35972	33274	36266	
4146	0	35952	33266	36263	
4147	0	35948	33260	36271	
4148	0	35962	33260	36272	
4149	0	35984	33235	36271	
4150	0	35988	33240	36279	
4151	0	35974	33234	36274	
4152	0	35999	33234	36268	
4153	0	35974	33238	36247	
4154	0	35964	33240	36256	
4155	0	35970	33236	36255	
4156	0	35978	33245	36251	
4157	0	35972	33239	36255	
4158	0	35948	33248	36230	
4159	0	35962	33248	36231	
4160	0	35990	33238	36250	
4161	0	35974	33244	36238	
4162	0	35992	33240	36230	
4163	0	35992	33238	36231	
4164	0	36000	33231	36231	
4165	0	35984	33231	36230	
4166	0	35992	33223	36222	
4167	0	35992	33228	36222	
4168	0	35972	33221	36226	
4169	0	35972	33213	36231	
4170	0	35974	33221	36230	
4171	0	35965	33234	36231	
4172	0	35972	33218	36230	
4173	0	35992	33214	36242	
4174	0	35992	33223	36222	
4175	0	35996	33237	36212	
4176	0	35988	33230	36220	
4177	0	35988	33235	36208	
4178	0	35992	33238	36202	
4179	0	36004	33229	36214	
4180	0	36028	33223	36214	
4181	0	36036	33238	36205	
4182	0	36050	33250	36196	
4183	0	36069	33248	36188	
4184	0	36064	33245	36183	
4185	0	36080	33255	36176	
4186	0	36092	33257	36171	
4187	0	36082	33259	36180	
4188	0	36100	33259	36182	
4189	0	36118	33266	36180	
4190	0	36126	33280	36167	
4191	0	36120	33269	36167	
4192	0	36120	33271	36182	
4193	0	36116	33255	36188	
4194	0	36116	33262	36160	
4195	0	36108	33258	36170	
4196	0	36104	33254	36194	
4197	0	36092	33254	36192	
4198	0	36093	33254	36200	
4199	0	36090	33248	36204	
4200	0	36093	33248	36199	
4201	0	36100	33234	36210	
4202	0	36112	33241	36219	
4203	0	36090	33240	36226	
4204	0	36088	33244	36219	
4205	0	36085	33246	36231	
4206	0	36064	33248	36231	
4207	0	36068	33235	36244	
4208	0	36050	33232	36256	
4209	0	36060	33255	36252	
4210	0	36056	33245	36264	
4211	0	36054	33247	36279	
4212	0	36050	33238	36290	
4213	0	36024	33250	36308	
4214	0	36013	33251	36311	
4215	0	36024	33266	36328	
4216	0	36012	33268	36334	
4217	0	36012	33276	36336	
4218	0	36026	33256	36359	
4219	0	36018	33252	36375	
4220	0	36008	33263	36359	
4221	0	36004	33254	36382	
4222	0	36004	33250	36374	
4223	0	36024	33239	36372	
4224	0	36016	33250	36375	
4225	0	36000	33236	36387	
4226	0	35988	33236	36374	
4227	0	36016	33226	36359	
4228	0	36032	33223	36356	
4229	0	36048	33223	36342	
4230	0	36044	33236	36326	
4231	0	36041	33250	36320	
4232	0	36040	33254	36306	
4233	0	36016	33255	36294	
4234	0	36004	33248	36295	
4235	0	36004	33251	36295	
4236	0	35984	33263	36282	
4237	0	35962	33260	36290	
4238	0	35970	33257	36282	
4239	0	35964	33237	36282	
4240	0	35974	33238	36270	
4241	0	35950	33238	36279	
4242	0	35964	33228	36269	
4243	0	35968	33239	36263	
4244	0	35968	33253	36243	
4245	0	35940	33250	36244	
4246	0	35968	33248	36247	
4247	0	35960	33242	36242	
4248	0	35965	33238	36250	
4249	0	35944	33239	36252	
4250	0	35974	33226	36263	
4251	0	35974	33223	36278	
4252	0	35972	33223	36276	
4253	0	35970	33232	36280	
4254	0	36000	33228	36294	
4255	0	35988	33223	36295	
4256	0	35994	33228	36300	
4257	0	35992	33223	36306	
4258	0	35992	33228	36302	
4259	0	36020	33234	36295	
4260	0	36020	33246	36302	
4261	0	36004	33239	36290	
4262	0	36009	33238	36297	
4263	0	36000	33243	36290	
4264	0	35996	33247	36290	
4265	0	35988	33229	36284	
4266	0	35986	33223	36274	
4267	0	35996	33228	36280	
4268	0	35990	33241	36270	
4269	0	35996	33232	36272	
4270	0	35996	33223	36288	
4271	0	36004	33223	36284	
4272	0	35998	33238	36278	
4273	0	36016	33223	36295	
4274	0	35994	33226	36282	
4275	0	35986	33228	36283	
4276	0	35996	33238	36270	
4277	0	36012	33241	36278	
4278	0	36032	33247	36266	
4279	0	36044	33237	36259	
4280	0	36048	33245	36261	
4281	0	36022	33254	36257	
4282	0	36024	33247	36272	
4283	0	36004	33250	36272	
4284	0	36032	33239	36261	
4285	0	36032	33254	36243	
4286	0	36038	33239	36250	
4287	0	36044	33231	36231	
4288	0	36048	33245	36222	
4289	0	36026	33239	36220	
4290	0	36012	33245	36208	
4291	0	36018	33238	36198	
4292	0	36032	33239	36190	
4293	0	36038	33245	36182	
4294	0	36033	33240	36172	
4295	0	36038	33242	36174	
4296	0	36040	33234	36167	
4297	0	36034	33232	36167	
4298	0	36036	33234	36163	
4299	0	36056	33241	36165	
4300	0	36082	33247	36156	
4301	0	36087	33236	36154	
4302	0	36076	33230	36165	
4303	0	36060	33234	36164	
4304	0	36068	33238	36167	
4305	0	36091	33238	36176	
4306	0	36084	33250	36168	
4307	0	36080	33241	36171	
4308	0	36094	33245	36170	
4309	0	36090	33247	36176	
4310	0	36076	33254	36167	
4311	0	36093	33266	36178	
4312	0	36089	33249	36196	
4313	0	36094	33254	36188	
4314	0	36114	33256	36183	
4315	0	36108	33252	36182	
4316	0	36080	33236	36212	
4317	0	36106	33223	36230	
4318	0	36078	33232	36239	
4319	0	36080	33223	36251	
4320	0	36108	33230	36250	
4321	0	36100	33223	36248	
4322	0	36107	33223	36261	
4323	0	36108	33222	36271	
4324	0	36080	33232	36260	
4325	0	36100	33216	36262	
4326	0	36072	33238	36270	
4327	0	36044	33241	36288	
4328	0	36044	33241	36295	
4329	0	36050	33223	36308	
4330	0	36045	33243	36314	
4331	0	36056	33234	36311	
4332	0	36046	33232	36320	
4333	0	36038	33232	36302	
4334	0	36032	33236	36288	
4335	0	36020	33234	36290	
4336	0	36024	33223	36294	
4337	0	36022	33231	36282	
4338	0	36022	33236	36288	
4339	0	36024	33238	36289	
4340	0	36022	33238	36293	
4341	0	36022	33220	36304	
4342	0	36032	33231	36295	
4343	0	36037	33223	36295	
4344	0	36048	33219	36325	
4345	0	36056	33218	36328	
4346	0	36058	33207	36337	
4347	0	36069	33215	36340	
4348	0	36092	33211	36357	
4349	0	36094	33195	36359	
4350	0	36098	33215	36349	
4351	0	36098	33209	36359	
4352	0	36098	33203	36381	
4353	0	36106	33191	36383	
4354	0	36132	33186	36383	
4355	0	36116	33187	36375	
4356	0	36112	33194	36359	
4357	0	36096	33205	36381	
4358	0	36112	33197	36375	
4359	0	36106	33196	36377	
4360	0	36096	33205	36359	
4361	0	36104	33214	36359	
4362	0	36096	33206	36359	
4363	0	36097	33202	36359	
4364	0	36100	33203	36359	
4365	0	36084	33213	36340	
4366	0	36076	33202	36340	
4367	0	36082	33195	36343	
4368	0	36078	33194	36333	
4369	0	36060	33202	36330	
4370	0	36080	33206	36336	
4371	0	36082	33200	36336	
4372	0	36104	33202	36325	
4373	0	36106	33204	36326	
4374	0	36084	33204	36314	
4375	0	36073	33196	36318	
4376	0	36062	33202	36314	
4377	0	36064	33212	36312	
4378	0	36082	33218	36309	
4379	0	36080	33221	36302	
4380	0	36093	33211	36295	
4381	0	36090	33220	36303	
4382	0	36085	33218	36306	
4383	0	36068	33218	36318	
4384	0	36084	33215	36313	
4385	0	36082	33212	36320	
4386	0	36080	33223	36328	
4387	0	36090	33220	36338	
4388	0	36086	33206	36338	
4389	0	36104	33217	36320	
4390	0	36088	33215	36319	
4391	0	36104	33228	36311	
4392	0	36100	33223	36316	
4393	0	36068	33223	36303	
4394	0	36080	33223	36294	
4395	0	36069	33223	36287	
4396	0	36080	33232	36274	
4397	0	36084	33223	36269	
4398	0	36084	33232	36263	
4399	0	36072	33237	36254	
4400	0	36080	33235	36247	
4401	0	36100	33224	36250	
4402	0	36084	33220	36255	
4403	0	36076	33204	36248	
4404	0	36094	33204	36253	
4405	0	36084	33211	36240	
4406	0	36096	33213	36242	
4407	0	36072	33223	36261	
4408	0	36064	33234	36268	
4409	0	36064	33231	36252	
4410	0	36060	33234	36253	
4411	0	36068	33229	36247	
4412	0	36058	33247	36246	
4413	0	36058	33251	36231	
4414	0	36064	33248	36231	
4415	0	36087	33260	36231	
4416	0	36084	33262	36246	
4417	0	36048	33271	36247	
4418	0	36050	33262	36261	
4419	0	36061	33269	36269	
4420	0	36072	33255	36259	
4421	0	36074	33256	36263	
4422	0	36056	33246	36261	
4423	0	36040	33254	36256	
4424	0	36036	33254	36251	
4425	0	36020	33247	36258	
4426	0	36032	33244	36274	
4427	0	36048	33251	36272	
4428	0	36026	33263	36260	
4429	0	36024	33256	36262	
4430	0	36018	33256	36278	
4431	0	36024	33256	36292	
4432	0	36018	33250	36298	
4433	0	36018	33246	36302	
4434	0	36026	33264	36286	
4435	0	36020	33261	36294	
4436	0	36024	33255	36292	
4437	0	36026	33254	36285	
4438	0	36040	33285	36269	
4439	0	36032	33269	36269	
4440	0	36016	33281	36245	
4441	0	35994	33274	36231	
4442	0	35964	33281	36222	
4443	0	35978	33283	36215	
4444	0	35976	33287	36214	
4445	0	35992	33287	36204	
4446	0	35975	33287	36188	
4447	0	35992	33300	36174	
4448	0	36004	33287	36167	
4449	0	36024	33287	36162	
4450	0	36028	33279	36167	
4451	0	36048	33275	36168	
4452	0	36040	33285	36177	
4453	0	36050	33287	36164	
4454	0	36040	33282	36166	
4455	0	36066	33280	36179	
4456	0	36068	33284	36170	
4457	0	36104	33287	36182	
4458	0	36084	33287	36185	
4459	0	36072	33287	36176	
4460	0	36065	33287	36183	
4461	0	36058	33274	36191	
