12372
12306
12251
12193
12154
12114
12041
12002
11986
12024
12058
12081
12020
11968
11969
12051
12060
12130
12174
12242
12354
12448
12553
12688
12808
12936
13096
13251
13330
13473
13573
13793
14020
14334
14581
14836
15145
15493
15816
16138
16480
16810
17198
17508
17930
18310
18652
19010
19375
19768
20205
20610
21028
21472
21878
22324
22776
23208
23648
24056
24504
24940
25353
25784
26240
26664
27083
27512
27936
28356
28772
29192
29600
30017
30416
30832
31232
31632
32028
32412
32784
33168
33576
33954
34313
34676
35016
35360
35681
35968
36240
36632
36948
37232
37512
37744
38082
38272
38624
38880
39065
39300
39552
39748
39952
40176
40384
40568
40768
41036
41220
41386
41560
41728
41868
42032
42176
42320
42442
42576
42704
42792
42904
42968
43056
43144
43200
43248
43314
43360
43560
43616
43666
43712
43736
43776
43808
43848
43824
43828
43836
43840
43872
43872
43842
43840
43808
43812
43755
43720
43684
43684
43690
43648
43616
43560
43489
43442
43384
43328
43248
43170
43096
43016
42922
42842
42720
42624
42528
42444
42308
42200
42088
41956
41844
41696
41536
41396
41220
41088
40956
40810
40784
40640
40480
40320
40088
39904
39732
39572
39368
39200
39012
38816
38649
38468
38304
38220
38033
37848
37680
37488
37300
37092
36904
36700
36516
36320
36120
35916
35714
35512
35320
35120
34936
34736
34536
34346
34152
33964
33728
33522
33336
33136
32952
32784
32578
32400
32220
32044
31864
31676
31477
31304
31128
30960
30780
30616
30408
30300
30128
29952
29800
29636
29480
29328
29168
29024
28880
28736
28596
28456
28316
28204
28073
27948
27832
27720
27616
27516
27404
27304
27212
27137
27048
26978
26888
26811
26744
26656
26596
26544
26496
26449
26393
26348
26308
26288
26280
26256
26241
26220
26208
26200
26194
26178
26152
26120
26124
26138
26152
26144
26160
26176
26188
26232
26266
26282
26312
26320
26362
26394
26436
26466
26512
26552
26624
26668
26704
26732
26792
26840
26904
26952
27016
27072
27136
27200
27272
27336
27373
27442
27520
27576
27644
27700
27760
27824
27892
27956
28008
28061
28096
28168
28256
28302
28356
28420
28480
28520
28541
28584
28616
28652
28696
28752
28832
28884
28914
28938
28968
29018
29026
29046
29096
29108
29080
29086
29104
29132
29168
29244
29241
29252
29256
29268
29274
29272
29296
29292
29272
29272
29232
29200
29180
29272
29248
29232
29224
29240
29220
29146
29072
29076
29128
29006
29088
29034
28937
29010
28944
28810
28892
28856
28744
28753
28632
28674
28568
28608
28588
28500
28457
28338
28344
28216
28240
28104
28120
27997
28010
27912
27898
27844
27720
27722
27704
27632
27556
27512
27464
27393
27280
27200
27178
27192
27096
27034
27007
26913
26824
26752
26696
26640
26596
26532
26530
26452
26380
26324
26258
26194
26144
26090
26018
25956
25896
25833
25732
25636
25578
25529
25472
25440
25380
25302
25236
25172
25108
25040
24988
24912
24844
24776
24714
24656
24592
24520
24466
24396
24340
24273
24212
24149
24080
24008
23938
23888
23816
23760
23704
23632
23561
23488
23440
23378
23312
23250
23186
23120
23058
22996
22928
22872
22804
22724
22628
22592
22544
22488
22424
22368
22308
22244
22176
22108
22052
21992
21948
21888
21818
21757
21696
21610
21522
21469
21420
21362
21284
21248
21208
21130
21089
21024
20964
20878
20804
20724
20649
20592
20524
20460
20394
20328
20257
20202
20136
20068
20000
19944
19872
19824
19762
19680
19613
19524
19450
19393
19356
19304
19219
19107
19064
19000
18920
18796
18658
18585
18500
18428
18353
18290
18182
18088
18004
17974
17936
17859
17740
17600
17510
17441
17364
17284
17253
17185
17098
17009
16928
16900
16925
16858
16780
16696
16614
16480
16389
16322
16248
16196
16120
16072
16008
15947
15890
15824
15777
15716
15648
15598
15530
15486
15420
15376
15344
15291
15232
15106
15060
14996
14948
14945
14954
14901
14850
14794
14742
14688
14637
14590
14528
14426
14322
14301
14288
14346
14368
14404
14416
14434
14452
14478
14502
14544
14665
14689
14732
14864
14963
15012
15165
15313
15510
15724
15916
16108
16304
16570
16836
17138
17460
17784
18096
18400
18664
18904
19290
19688
20036
20424
20920
21213
21588
22026
22450
22856
23308
23712
24182
24618
25016
25504
25942
26404
26850
27268
27770
28218
28649
29164
29632
30052
30490
30920
31396
31918
32353
32810
33266
33712
34106
34472
34800
35220
35616
36040
36584
36978
37361
37744
38120
38480
38850
39225
39578
39880
40280
40620
40928
41216
41480
41760
42017
42256
42588
43082
43376
43656
43915
44120
44424
44732
44946
45112
45248
45600
45796
45970
46144
46408
46576
46698
46928
47016
47346
47370
47512
47712
47788
47904
48040
48128
48256
48344
48416
48504
48684
48616
48682
48896
48800
48896
48968
48946
49034
48968
49056
49208
49064
48898
49272
49112
49200
49322
49136
49018
49330
49170
49184
49108
49000
49292
49084
49096
49012
48896
49168
48968
49004
48872
48896
48840
48586
48880
48656
48712
48524
48532
48376
48378
48216
48176
48080
47980
47904
47770
47741
47696
47648
47552
47448
47312
47204
47056
46928
46784
46624
46472
46336
46112
45896
45680
45544
45648
45490
45328
45176
45008
44800
44640
44584
44456
44288
44056
43848
43488
43544
43360
43096
43016
42892
42681
42440
42232
41944
41928
41740
41568
41400
41236
41028
40844
40808
40656
40480
40224
40056
39904
39712
39492
39498
39336
39112
38994
38696
38760
38584
38390
38252
37976
38116
37882
37716
37600
37552
37332
37168
36896
37080
36888
36832
36576
36384
36193
36298
36188
36040
35984
35924
35888
35728
35552
35400
35320
35240
35096
35272
35180
35104
34976
34908
34866
34848
34900
34864
34773
34636
34496
34698
34668
34664
34592
34664
34768
34736
34704
34672
34692
34664
34672
34930
34937
34960
35100
35200
35208
35200
35120
35400
35424
35660
35656
35680
35637
35948
36012
36026
36156
36352
36368
36416
36416
36357
36708
36784
36786
36978
37200
37214
37152
37440
37482
37506
37776
37782
37820
37800
37728
38088
38144
38196
38244
38234
38320
38617
38592
38594
38424
38768
38736
38840
39040
39024
38880
38736
39156
39028
39024
39232
39196
39256
39176
39300
39210
39289
39204
39328
39144
39184
39288
38936
39372
39168
39201
39321
39150
39188
39048
39152
39160
38880
38720
39098
38848
38896
39000
38760
38496
38880
38685
38721
38628
38584
38604
38344
38256
38456
38196
37994
38240
37948
37752
38056
37832
37756
37800
37680
37600
37396
37184
37496
37288
37232
36968
36776
37064
36760
36548
36796
36618
36616
36398
36384
36272
36228
36188
35904
35690
35936
35712
35680
35578
35588
35528
35246
35188
35208
34898
35112
34900
34849
34649
34452
34640
34376
34216
34448
34196
34032
34208
34020
34016
33892
33787
33636
33536
33644
33524
33376
33424
33260
33192
33184
32876
33044
32904
32852
32792
32544
32750
32569
32516
32540
32468
32340
32360
32234
32156
32192
32162
32002
31866
31780
31872
31829
31874
31756
31672
31496
31722
31584
31484
31608
31465
31376
31632
31532
31404
31584
31450
31464
31468
31556
31434
31328
31268
31562
31508
31448
31388
31448
31512
31540
31489
31420
31464
31504
31544
31532
31408
31440
31445
31264
31560
31442
31464
31432
31428
31568
31448
31432
31332
31388
31280
31440
31288
31396
31312
31376
31285
31114
31392
31378
31330
31308
31288
31188
31210
31204
31344
31312
31284
31216
31192
31160
31154
31064
31213
31116
31032
30912
31004
31104
31060
31044
30952
30944
30744
30648
30621
30592
30580
30544
30821
30458
30498
30432
30360
30316
30296
30240
30476
30368
30296
30232
30164
29984
30052
30120
30050
29956
29884
29780
29664
29616
29564
29288
29508
29397
29280
29178
29064
28924
28840
28744
28652
28662
28696
28636
28512
28384
28336
28252
28060
27936
27880
27844
27950
27826
27714
27534
27560
27560
27520
27376
27328
27184
27331
27202
27049
27170
27168
27058
27072
26988
27196
27156
27168
27138
27120
27196
27368
27360
27400
27544
27538
27840
27900
27968
28070
28290
28536
28680
28808
28972
29100
29496
29602
29888
30212
30373
30610
30712
30936
31442
31730
31960
32212
32416
32928
32932
33544
33680
34208
34200
34844
34860
35488
35464
36034
36269
36720
37120
37480
37804
38132
38448
38824
39208
39560
39898
40232
40584
40920
41212
41554
41872
42208
42544
42792
43233
43556
43872
44096
44585
44952
45244
45500
45840
46128
46258
46696
47010
47328
47642
47968
48232
48532
48864
49168
49432
49576
49712
49960
50216
50476
50744
51016
51252
51312
51648
51706
52068
52320
52584
52808
52992
53152
53340
53490
53688
53808
53984
54104
54252
54336
54344
54372
54472
54568
54656
54776
54880
55024
55072
55136
55168
55312
55426
55476
55536
55584
55604
55640
55608
55520
55464
55528
55512
55512
55432
55400
55392
55400
55504
55312
55352
55272
55184
55280
55028
55008
55144
54864
54900
54696
54488
54792
54472
54544
54256
54272
54056
54128
53856
53896
53635
53348
53592
53360
53408
53080
53128
52832
52888
52536
52600
52280
52329
51992
52008
51592
51608
51192
51240
50944
50976
50648
50546
50370
50145
50064
49865
49618
49384
49248
49128
48922
48656
48704
48522
48194
47946
47754
47592
47352
47184
47240
47040
46832
46636
46448
46256
46064
45848
45748
45692
45532
45352
45136
44952
44768
44576
44370
44184
43952
43640
43736
43568
43400
43192
43016
42980
42840
42738
42584
42400
42216
41884
41744
41576
41712
41568
41384
41402
41440
41368
41234
41104
40968
40896
40820
40644
40540
40464
40532
40568
40424
40208
40348
40256
40104
40216
40146
39986
39700
39896
39792
39643
39820
39684
39464
39600
39496
39472
39524
39368
39392
39328
39200
39264
39376
39288
39000
39168
39080
39084
39028
38864
39154
38948
39020
39024
39112
39032
39000
39016
39000
39018
38952
38744
39052
39016
38906
39096
39024
38792
38976
38908
39040
39001
38872
39000
38960
38848
39028
39040
38912
38920
38800
38996
38936
38698
38866
38760
38900
38616
38736
38800
38724
38754
38592
38560
38667
38616
38444
38592
38546
38562
38496
38292
38456
38372
38364
38258
38448
38300
38116
38308
38184
38304
38160
38128
38085
38186
37900
38088
38080
38008
37772
37929
38051
37929
37704
37908
37764
37946
37792
37488
37697
37584
37780
37628
37376
37594
37502
37592
37496
37480
37340
37444
37432
37264
37316
37152
37304
37140
36848
37012
36892
37044
36872
36612
36824
36672
36804
36570
36600
36440
36544
36312
36416
36292
36320
36148
36172
35997
36072
36000
35858
35904
35792
35696
35728
35566
35484
35248
35440
35328
35184
35256
35256
35096
35000
34876
34712
34884
34788
34656
34604
34653
34448
34208
34368
34204
34264
34176
34028
34104
33952
33904
33872
33712
33600
33376
33520
33396
33320
33384
33336
33136
33025
32864
32978
32896
32856
32688
32468
32548
32600
32396
32460
32272
32324
32128
31912
32012
32000
31857
31648
31725
31712
31517
31580
31448
31304
31376
31258
31082
31148
31000
30982
30732
30752
30792
30600
30416
30544
30376
30448
30232
30185
30190
30020
30056
29984
29804
29800
29602
29664
29560
29426
29394
29354
29192
29248
29130
29000
28968
28978
28916
28722
28736
28632
28520
28528
28445
28476
28264
28224
28288
28132
28000
27952
27996
27930
27736
27664
27684
27646
27472
27520
27368
27424
27202
27236
27200
27024
27056
26946
26828
26760
26802
26760
26584
26568
26608
26360
26360
26268
26273
26140
26146
26120
25949
25953
25953
25744
25790
25816
25565
25544
25484
25522
25472
25260
25272
25184
25200
25176
24944
24948
24868
24828
24744
24712
24648
24626
24480
24576
24488
24394
24268
24196
24148
24088
24080
24036
23984
24040
23954
23868
23760
23692
23674
23640
23538
23460
23357
23366
23290
23204
23140
23092
23052
22992
22944
22892
22842
22850
22797
22760
22700
22674
22641
22688
22621
22524
22468
22480
22440
22320
22240
22208
22224
22208
22217
22216
22240
22192
22162
22144
22148
22178
22208
22218
22216
22272
22336
22397
22424
22489
22526
22580
22670
22780
22900
22973
23164
23350
23520
23779
23944
24108
24266
24496
24756
25016
25240
25490
25720
25968
26288
26608
27072
27320
27568
27969
28314
28548
28908
29410
29712
30020
30524
30768
31292
31624
31944
32380
32632
33192
33376
34048
34176
34832
34930
35644
35968
36308
36656
37068
37554
37684
38292
38456
39076
39314
39780
40156
40512
40936
41248
41736
42056
42428
42640
42912
43452
43584
44106
44152
44904
45098
45516
45650
46116
46304
46680
46808
47056
47448
47680
48016
48292
48584
48818
49008
49224
49504
49744
50034
50276
50516
50724
50882
50984
51072
51160
51544
51712
51856
51968
52096
52224
52353
52504
52618
52736
52848
52946
53040
53152
53232
53346
53432
53504
53568
53650
53728
53904
53944
53960
54032
53944
53952
53984
54080
54064
54104
54144
54144
54082
54104
54120
54056
53930
53880
53856
53810
53728
53664
53652
53624
53576
53512
53516
53488
53448
53344
53304
53312
53232
53144
53064
52968
52800
52656
52504
52232
52368
52210
52072
51984
51864
51768
51740
51752
51654
51520
51336
51144
50904
50617
50704
50552
50384
50244
50088
49960
49808
49688
49560
49464
49330
49280
49056
48904
48562
48400
48248
48130
47992
47876
47788
47616
47416
47169
46986
46692
46416
46505
46304
46104
45932
45728
45560
45368
45128
44992
44872
44684
44512
44340
44117
44024
43888
43712
43512
43336
43104
42864
42484
42532
42368
42104
42032
41632
41736
41432
41354
41024
41152
40696
40904
40600
40588
40384
40281
40052
39962
39788
39684
39504
39498
39328
39180
38952
38880
38856
38490
38680
38228
38448
38364
37980
38204
38082
37992
37912
37772
37664
37616
37520
37476
37460
37420
37408
37372
37272
37168
37074
36996
36908
36868
36850
36820
36792
36800
36800
36784
36760
36720
36696
36632
36580
36532
36544
36520
36512
36480
36465
36472
36472
36482
36472
36472
36504
36552
36528
36505
36484
36484
36500
36492
36570
36608
36584
36632
36681
36688
36580
36594
36482
36674
36656
36642
36656
36672
36664
36680
36680
36636
36680
36620
36640
36738
36828
36856
36856
36856
36824
36800
36824
36760
36732
36592
36536
36832
36808
36752
36700
36752
36824
36860
36850
36852
36824
36820
36796
36768
36736
36752
36736
36668
36592
36592
36560
36556
36536
36496
36520
36452
36444
36424
36320
36082
36346
36264
36192
36212
36297
36224
36168
36092
36040
35904
35824
35704
35652
35652
35628
35560
35548
35568
35459
35672
35588
35504
35384
35296
35241
35184
35148
35136
35152
35176
35120
35044
34952
34832
34784
34556
34476
34605
34496
34360
34336
34436
34368
34204
34140
34088
34012
33952
33890
33776
33672
33632
33474
33412
33385
33320
33180
33404
33316
33216
33132
33008
32896
32868
32868
32848
32768
32682
32636
32577
32488
32424
32364
32209
32088
32048
31874
31800
31792
31736
31664
31584
31520
31448
31354
31304
31248
31176
31168
31104
31058
30972
30844
30732
30664
30560
30512
30374
30216
30354
30228
30084
30090
30096
29936
29836
29864
29768
29696
29648
29498
29456
29332
29264
29164
29217
28947
28992
28882
28964
28842
28769
28736
28564
28513
28408
28308
28260
28152
28056
28120
27954
28020
27960
27776
27804
27672
27586
27504
27452
27424
27376
27324
27276
27048
26976
26962
26881
26824
26760
26728
26650
26568
26536
26450
26404
26336
26280
26180
26100
26036
25972
26072
26000
25796
25730
25666
25770
25681
25584
25512
25442
25340
25240
25218
25200
25137
25032
24926
24916
24864
24826
24754
24672
24584
24540
24481
24380
24305
24240
24164
24120
24068
24057
24033
23912
23828
23768
23716
23664
23669
23482
23436
23388
23342
23306
23246
23192
23128
23092
23028
22988
22924
22860
22792
22736
22662
22605
22549
22542
22589
22513
22446
22392
22345
22300
22146
22128
22140
22032
21968
21890
21809
21781
21766
21728
21730
21737
21640
21561
21516
21416
21313
21282
21269
21248
21240
21284
21208
21176
21140
21098
21048
20994
20936
20876
20824
20804
20770
20720
20672
20636
20624
20580
20540
20517
20500
20440
20409
20403
20316
20290
20257
20304
20280
20236
20176
20156
20133
20108
20088
20064
20037
20052
20040
20058
20092
20116
20144
20220
20276
20352
20418
20456
20533
20638
20720
20792
20882
21034
21178
21344
21508
21688
21862
22051
22240
22461
22706
22964
23108
23346
23592
23848
24088
24388
24712
25024
25376
25712
26048
26370
26696
27041
27332
27690
28060
28380
28764
29144
29512
29890
30248
30640
31024
31400
31792
32160
32480
32836
33216
33560
33936
34292
34888
35240
35616
35984
36344
36712
37080
37424
37802
38144
38480
38824
39162
39514
39848
40160
40484
40748
41176
41529
41848
42152
42464
42737
43040
43356
43632
43872
44138
44394
44600
44848
45068
45212
45376
45856
46073
46296
46512
46720
46712
46888
47160
47488
47684
47904
48096
48268
48440
48632
48778
48944
48984
49072
49232
49364
49442
49528
49528
49608
49712
49920
50032
50160
50256
50328
50388
50432
50424
50440
50410
50442
50440
50480
50488
50528
50676
50696
50704
50669
50688
50640
50656
50649
50624
50488
50378
50224
50116
50076
50048
49976
50160
50096
50032
49936
49858
49752
49680
49672
49662
49634
49513
49352
49224
49184
49144
49040
48880
48700
48560
48488
48384
48256
48128
47988
47824
47616
47352
47456
47296
47144
46976
46896
46856
46712
46460
46208
45952
46048
45872
45704
45476
45324
45244
45072
44936
44738
44592
44384
44176
44008
43852
43636
43472
43272
43040
42945
42724
42484
42216
41978
41704
41764
41560
41364
41144
40921
40728
40604
40456
40296
40072
39898
39684
39540
39344
39186
39008
38824
38632
38468
38280
38112
37896
37688
37482
37288
37120
36954
36796
36610
36476
36304
36201
36130
36024
35912
35794
35668
35549
35338
35178
35060
34954
34864
34752
34636
34536
34444
34338
34232
34108
34056
33952
33864
33784
33732
33704
33637
33616
33540
33484
33418
33416
33376
33338
33300
33276
33241
33176
33128
33112
33104
33058
32996
32988
33000
32992
32984
32976
32992
32976
32976
32992
33002
33004
33040
33072
33132
33168
33178
33228
33272
33316
33336
33388
33420
33450
33452
33424
33440
33464
33532
33572
33614
33656
33480
33514
33560
33580
33603
33640
33680
33716
33756
33800
33820
33880
33948
34012
34048
34076
34102
34122
34154
34180
34276
34336
34368
34370
34410
34468
34480
34444
34404
34424
34466
34461
34482
34480
34484
34488
34488
34478
34480
34472
34552
34520
34508
34498
34482
34472
34466
34481
34456
34472
34484
34496
34508
34496
34442
34464
34448
34440
34444
34176
34228
34264
34228
34224
34217
34232
34250
34218
34064
34016
33980
33989
33969
33936
33888
33858
33816
33760
33720
33680
33640
33594
33544
33420
33376
33344
33304
33296
33274
33192
33129
33084
32986
32940
32880
32884
32764
32696
32688
32648
32604
32564
32544
32238
32202
32140
32132
32128
32064
32004
31936
31928
31900
31840
31772
31666
31544
31594
31520
31448
31392
31274
31239
31196
31132
31098
31104
31080
31025
30948
30776
30756
30728
30666
30632
30356
30520
30432
30372
30317
30022
29964
29892
29840
29810
29746
29712
29656
29588
29536
29462
29397
29332
29284
29232
29152
29088
29020
28944
28885
28904
28864
28786
28698
28668
28632
28458
28354
28268
28224
28173
28096
28044
28000
27964
27945
27900
27872
27629
27572
27696
27608
27536
27480
27424
27329
27204
27129
27074
27052
27052
27003
26976
26752
26684
26649
26598
26516
26464
26464
26440
26368
26284
26176
26184
26114
26036
25986
25930
25888
25808
25752
25724
25593
25556
25464
25376
25308
25252
25185
25200
25184
24992
24876
24870
24856
24721
24741
24714
24672
24625
24428
24352
24228
24185
24179
24165
24028
23944
23880
23882
23844
23692
23632
23564
23488
23432
23360
23296
23228
23141
23056
22996
22944
22882
22813
22744
22640
22556
22496
22400
22313
22272
22176
22112
22028
21972
21910
21844
21772
21712
21651
21624
21646
21572
21472
21378
21344
21298
21252
21192
21051
20984
20920
20846
20780
20712
20646
20602
20546
20476
20402
20345
20286
20232
20148
20101
20096
20026
19961
19904
19809
19736
19672
19604
19544
19480
19412
19370
19320
19261
19200
19160
19112
19064
19001
18964
18913
18873
18818
18766
18724
18680
18640
18596
18544
18498
18468
18440
18411
18384
18373
18368
18357
18348
18340
18356
18372
18394
18422
18460
18496
18530
18593
18660
18749
18848
18972
19064
19220
19344
19477
19641
19784
19970
20146
20344
20528
20760
21008
21244
21476
21730
22000
22272
22546
22840
23152
23452
23776
24104
24440
24768
25112
25448
25788
26104
26457
26834
27114
27476
27860
28236
28612
28988
29353
29728
30098
30480
30848
31230
31592
31964
32328
32682
33208
33577
33936
34120
34632
34980
35338
35676
36032
36172
36504
36848
37178
37512
37852
38160
38472
38800
39128
39460
39748
40068
40344
40628
40880
41138
41352
41604
42088
42344
42592
42844
43080
43322
43552
43776
43996
44216
44364
44564
44768
44952
45176
45368
45514
45730
45892
46040
46176
46336
46448
46608
46728
46864
46956
47048
47144
47256
47336
47336
47544
47600
47664
47740
47752
47698
48008
47948
48048
48024
48024
48152
48144
48216
48160
48136
48240
48216
48296
48172
48232
48116
48072
48200
48072
48008
48064
47952
47876
47818
47640
47808
47673
47594
47568
47524
47505
47368
47298
47200
47204
47048
47008
46848
46800
46648
46572
46460
46384
46236
46148
46004
45920
45753
45600
45476
45280
45220
45058
44992
44900
44512
44552
44216
44304
44096
43936
43788
43640
43472
43090
42952
42968
42810
42644
42464
42296
41880
41704
41752
41570
41380
40968
40800
40620
40490
40320
40184
40064
39896
39668
39432
39256
39096
38904
38720
38552
38168
37956
37744
37576
37393
37200
37020
36832
36644
36504
36320
36116
35948
35792
35642
35516
35460
35336
35176
34984
34781
34656
34336
34196
34064
33932
33832
33696
33552
33468
33416
33275
33153
33012
32880
32768
32672
32560
32465
32384
32274
32216
32136
32064
31988
31936
31728
31656
31600
31544
31492
31442
31408
31362
31336
31304
31296
31272
31249
31232
31200
31354
31332
31340
31308
31324
31312
31314
31314
31332
31340
31361
31380
31424
31449
31464
31476
31500
31548
31608
31632
31680
31689
31724
31762
31794
31825
31865
31904
31952
32032
32064
32088
32140
32192
32232
32316
32372
32443
32490
32540
32612
32664
32676
32624
32644
32666
32696
32723
32768
32808
32856
32898
32924
33152
33184
33200
33216
33336
33376
33409
33352
33336
33412
33428
33440
33504
33516
33564
33544
33522
33578
33624
33576
33600
33580
33568
33582
33570
33576
33588
33793
33820
33817
33816
33816
33796
33776
33728
33690
33731
33744
33778
33732
33696
33704
33688
33642
33644
33628
33620
33560
33562
33528
33518
33400
33432
33336
33328
33256
33276
33320
33057
33024
32996
32968
32940
32900
32882
32832
32778
32732
32696
32648
32611
32632
32592
32552
32496
32444
32428
32377
32304
32274
32216
32074
32024
31971
32129
32080
32020
31950
31893
31824
31720
31680
31600
31568
31520
31444
31384
31368
31304
31272
31226
31150
31032
30956
30864
30768
30688
30800
30728
30632
30536
30480
30500
30436
30280
30176
30104
30068
29992
29956
29955
29938
29884
29810
29736
29664
29569
29504
29368
29312
29242
29156
29098
29185
29126
29012
28929
28836
28752
28696
28649
28632
28588
28464
28412
28282
28204
28152
28078
28016
27948
27872
27800
27888
27776
27696
27584
27496
27458
27445
27360
27300
27216
27138
27082
27032
26986
26888
26793
26740
26681
26600
26516
26436
26368
26307
26276
26178
26120
26064
26024
25976
25898
25793
25732
25680
25612
25544
25480
25420
25360
25313
25226
25186
25144
25096
25036
24960
24929
24844
24784
24756
24696
24640
24604
24448
24400
24332
24338
24264
24196
24140
24096
24040
23960
23868
23784
23689
23650
23610
23538
23464
23452
23384
23278
23244
23176
23090
23024
22939
22918
22868
22800
22752
22692
22632
22564
22489
22416
22348
22288
22248
22210
22188
22050
21994
21900
21789
21748
21648
21570
21514
21480
21388
21312
21262
21212
21216
21197
21140
21144
21053
21008
20940
20900
20832
20761
20696
20628
20600
20520
20368
20346
20324
20264
20248
20245
20258
20092
20140
20006
20088
20016
20076
20128
20024
20120
20069
20146
20030
20164
20136
20249
20300
20388
20496
20476
20636
20722
20856
21008
21128
21280
21508
21568
21840
22040
22285
22472
22728
22996
23168
23498
23704
24058
24306
24592
24922
25202
25568
25948
26210
26592
26944
27288
27620
28000
28364
28722
29096
29464
29840
30212
30600
30969
31344
31714
32106
32492
32848
33224
33682
34064
34416
34764
35088
35408
35746
36082
36635
36986
37328
37681
38012
38368
38696
39000
39400
39754
40112
40416
40744
40984
41277
41584
41884
42194
42488
42760
43032
43312
43552
43744
44048
44488
44736
44920
45248
45524
45744
45888
46064
46144
46568
46768
46752
47256
47340
47586
47696
47926
47992
48200
48288
48472
48704
48712
48900
48946
49168
49176
49300
49352
49336
49704
49690
49904
49776
49872
49880
49834
50204
50032
50200
50088
50105
50276
49976
50380
50210
50392
50224
50384
50200
50272
50162
50156
50088
50048
50104
49888
50096
49940
50008
49784
49808
49682
49724
49536
49536
49392
49433
49265
49320
48924
49042
48812
48804
48684
48576
48496
48368
48274
48164
48051
47952
47640
47584
47488
47340
47160
47232
47088
46944
46816
46672
46356
46232
46080
45936
45817
45692
45552
45408
45312
45184
44936
44778
44616
44424
44280
44144
43962
43792
43632
43440
43264
43074
42876
42680
42512
42324
42120
41923
41712
41520
41336
41136
40969
40792
40608
40420
40236
40048
39856
39654
39384
39140
38906
38690
38492
38496
38304
38108
37920
37748
37564
37401
37216
37028
36873
36696
36512
36352
36204
36056
35904
35736
35600
35452
35296
35158
35024
34876
34740
34616
34456
34332
34216
34136
34066
33892
33708
33572
33474
33364
33272
33190
33108
33168
33084
33008
32928
32858
32784
32696
32662
32594
32546
32552
32514
32378
32280
32242
32209
32192
32146
32120
32112
32092
32228
32187
32172
32160
32132
32160
32184
32148
32080
32044
32048
32212
32200
32202
32224
32284
32324
32338
32328
32312
32301
32272
32304
32316
32339
32369
32556
32584
32612
32632
32664
32680
32712
32792
32664
32690
32726
32764
32804
32832
32848
32876
32904
32928
33140
33152
33173
33196
33240
33276
33316
33344
33388
33376
33292
33378
33306
33504
33328
33520
33360
33548
33372
33572
33408
33472
33466
33538
33572
33570
33576
33608
33612
33624
33626
33568
33564
33604
33584
33570
33564
33528
33513
33504
33520
33536
33568
33612
33612
33556
33496
33468
33443
33408
33404
33404
33392
33391
33370
33328
33252
33218
33192
33146
33160
33136
33056
33032
33090
33048
32888
32888
32868
32764
32720
32696
32653
32600
32564
32560
32538
32528
32514
32424
32352
32280
32202
32144
32122
32044
31992
31948
31899
31840
31780
31724
31672
31604
31554
31516
31490
31426
31400
31333
31252
31162
31056
31016
30952
30876
30850
30852
30784
30688
30640
30532
30438
30346
30380
30354
30260
30114
30046
30020
29962
29924
29874
29826
29586
29524
29476
29442
29474
29424
29330
29298
29156
29088
29112
28888
28828
28760
28781
28752
28600
28612
28568
28368
28320
28240
28263
28280
28178
28064
28057
28004
27954
27908
27704
27660
27584
27616
27594
27456
27389
27356
27353
27324
27105
27049
26976
26906
26856
26824
26796
26752
26722
26650
26584
26554
26508
26432
26376
26276
26192
26112
26045
25997
25941
25888
25832
25772
25696
25700
25667
25632
25581
25525
25482
25404
25341
25264
25196
25120
25032
24948
24900
24848
24777
24726
24648
24650
24608
24581
24544
24452
24416
24372
24276
24212
24131
24056
23989
23896
23837
23802
23736
23698
23640
23576
23504
23464
23378
23316
23241
23233
23186
23144
23104
23048
22894
22834
22856
22688
22570
22469
22424
22344
22276
22234
22208
22148
22052
22016
22016
21968
21928
21881
21820
21752
21684
21620
21556
21408
21296
21236
21240
21212
21234
21136
21048
20962
20928
20892
20836
20768
20706
20648
20569
20502
20448
20352
20310
20244
20198
20156
20096
20060
20009
19968
19946
19873
19825
19768
19685
19627
19584
19533
19504
19440
19384
19266
19240
19234
19248
19324
19288
19272
19241
19220
19216
19234
19264
19292
19324
19362
19392
19428
19488
19523
19640
19704
19790
19930
20052
20181
20329
20494
20645
20832
21028
21228
21440
21646
21898
22122
22352
22640
22936
23224
23538
23864
24264
24600
24924
25308
25680
26040
26452
26840
27250
27640
28056
28444
28872
29280
29696
30112
30500
30864
31192
31602
32000
32406
32832
33248
33674
34200
34624
34960
35356
35772
36196
36594
36960
37424
37812
38204
38516
38844
39208
39580
39960
40328
40676
41136
41480
41836
42208
42560
42874
43224
43544
43848
44141
44360
44648
45000
45300
45562
45864
46120
46204
46464
46696
46920
47186
47360
47664
47851
48100
48352
48576
48850
49004
49200
49330
49448
49568
49732
50088
50224
50344
50472
50580
50684
50816
50976
51128
51200
51248
51355
51560
51688
51771
51840
51888
51882
51808
51752
51724
51704
51908
51920
52092
52100
52072
52076
52104
52168
52152
52160
52152
52112
51976
51748
51840
51792
51720
51660
51640
51722
51688
51624
51522
51488
51396
51392
51308
51216
51027
50992
50842
50688
50592
50504
50393
50283
50184
50090
49976
49856
49738
49604
49504
49408
49264
49144
49026
48904
48784
48656
48536
48400
48264
48128
47968
47840
47704
47536
47360
47200
47064
46996
46834
46664
46468
46264
46080
45920
45752
45532
45368
45184
45016
45032
44852
44676
44504
44324
44120
43928
43746
43612
43448
43252
42976
42744
42536
42544
42368
42192
41984
41828
41634
41482
41336
41128
40840
40648
40612
40440
40276
40097
39872
39762
39434
39440
39128
39140
38824
38828
38512
38560
38228
38268
38108
37984
37860
37736
37578
37392
37280
37153
37056
36896
36714
36672
36564
36448
36353
36288
36200
36076
35972
35884
35708
35616
35520
35442
35352
35264
35192
35288
35216
35152
35072
35060
35000
34936
34760
34832
34672
34800
34752
34716
34680
34544
34624
34464
34584
34388
34564
34360
34536
34504
34488
34488
34340
34444
34312
34528
34328
34528
34330
34562
34360
34512
34352
34410
34436
34452
34468
34480
34500
34524
34508
34538
34560
34584
34592
34600
34608
34656
34689
34705
34736
34784
34808
34890
34972
35008
34992
34950
34952
35012
35040
35066
35096
35120
34912
35154
34960
34988
35012
35040
35048
35092
35130
35148
35160
35168
35172
35176
35184
35264
35256
35280
35274
35336
35344
35260
35256
35244
35256
35284
35258
35216
35201
35202
35200
35044
35268
35200
35168
35168
35168
35128
35138
35120
35120
34872
35026
34828
35032
34798
35008
34984
34932
34809
34784
34732
34696
34662
34593
34568
34524
34536
34528
34492
34464
34438
34176
34160
34132
34137
34116
34060
34028
34000
34041
34004
33944
33868
33832
33768
33714
33664
33600
33492
33376
33320
33288
33256
33196
33144
33092
33048
32776
32784
32730
32764
32736
32672
32536
32428
32352
32324
32268
32193
32154
32066
32032
31964
31924
31656
31776
31704
31648
31560
31480
31396
31324
31258
31176
31108
30844
30760
30692
30616
30560
30504
30448
30382
30304
30242
30160
30088
29992
29916
29862
29762
29688
29624
29530
29476
29442
29376
29332
29264
29180
29120
29050
28960
28824
28736
28688
28608
28488
28416
28300
28216
28168
28180
28104
28006
27872
27792
27740
27692
27624
27560
27508
27480
27400
27320
27104
27040
26976
26877
26784
26776
26762
26688
26596
26481
26402
26342
26328
26282
26246
26056
25996
25936
25865
25788
25730
25664
25610
25544
25482
25416
25433
25368
25332
25145
25218
25024
24960
24904
24842
24778
24730
24680
24612
24552
24496
24532
24456
24404
24340
24297
24212
24176
24016
23944
23872
23808
23756
23674
23604
23538
23492
23488
23476
23448
23421
23356
23282
23178
23189
23178
23052
22984
22902
22801
22737
22718
22652
22648
22648
22612
22512
22474
22484
22456
22426
22356
22280
22242
22218
22200
22120
22056
22002
21972
21916
21872
21849
21829
21824
21812
21766
21712
21668
21672
21538
21472
21396
21316
21250
21220
21160
21114
21080
21064
21072
21068
21013
20980
20952
20932
20896
20872
20829
20776
20696
20606
20470
20445
20448
20475
20402
20360
20288
20248
20212
20204
20157
20132
20064
20034
19988
19936
19898
19842
19800
19720
19678
19648
19628
19616
19556
19504
19440
19414
19400
19304
19250
19204
19089
18996
19014
19044
19012
18960
18892
18848
18857
18826
18793
18723
18658
18561
18496
18442
18392
18392
18417
18376
18368
18324
18296
18293
18214
18165
18019
17988
17960
17944
17944
17896
17884
17874
17859
17860
17834
17801
17792
17776
17752
17752
17720
17710
17684
17656
17576
17568
17588
17632
17686
17744
17818
17856
17904
17957
18030
18106
18184
18280
18386
18496
18632
18780
18904
19084
19251
19484
19672
19904
20134
20363
20562
20875
21156
21428
21736
22072
22400
22740
23089
23370
23688
24105
24526
24928
25344
25820
26240
26624
27026
27440
27888
28344
28788
29245
29682
30080
30544
31008
31472
31908
32352
32784
33225
33676
34058
34476
34888
35296
35760
36188
36620
37028
37450
37664
38120
38568
38976
39376
39808
40216
40608
40996
41368
41684
42056
42416
42716
43040
43408
43666
43993
44513
44826
45136
45440
45672
45992
46272
46664
46890
47098
47408
47664
47928
48168
48416
48632
48856
49072
49260
49472
49664
49668
49872
50080
50376
50664
50872
50872
50960
51136
51050
51392
51624
51834
51864
51792
51860
51986
51968
52168
52360
52496
52512
52416
52416
52424
52488
52536
52576
52596
52588
52608
52616
52626
52616
52608
52584
52568
52548
52312
52276
52248
52168
52360
52152
52264
52001
52146
52104
52012
51756
51818
51812
51832
51784
51720
51552
51320
51216
51140
51041
50784
50888
50880
50745
50562
50370
50252
50152
49937
49864
49768
49704
49528
49376
49248
49104
48962
48772
48633
48500
48388
48284
48184
48064
47884
47704
47552
47362
47200
47056
46898
46760
46624
46448
46296
46128
45968
45792
45424
45276
45104
44936
44744
44528
44408
44256
44104
43944
43844
43724
43544
43339
43125
42976
42802
42616
42432
42248
42068
41880
41696
41528
41344
41176
40996
40825
40650
40481
40312
40152
39980
39808
39658
39480
39308
39152
38819
38664
38500
38348
38216
38056
37956
37828
37728
37616
37508
37408
37284
37157
37008
36880
36744
36632
36508
36369
36258
36180
36084
35988
35898
35808
35705
35626
35533
35440
35380
35244
35154
35056
34993
34900
34808
34740
34672
34800
34722
34672
34608
34618
34557
34496
34320
34464
34434
34404
34368
34234
34296
34184
34272
34132
34280
34112
34288
34092
34272
34074
34240
34068
34248
34089
34196
34140
34264
34328
34320
34360
34144
34378
34176
34352
34224
34236
34256
34260
34320
34344
34340
34388
34412
34442
34468
34460
34440
34490
34520
34546
34572
34572
34592
34592
34809
34816
34788
34880
34928
34840
34810
34888
34972
34992
35008
34976
34984
35048
34824
35032
34852
34988
34960
35040
35097
34864
35104
34860
34992
34948
34992
34906
34952
35056
35088
35016
34946
34944
34994
35009
34976
34972
34956
34938
34930
34900
34880
34848
34816
34788
34756
34680
34692
34721
34708
34640
34580
34568
34584
34576
34540
34472
34386
34308
34292
34248
34232
34184
34140
34104
34032
33996
33996
33752
33732
33704
33672
33692
33658
33660
33604
33520
33496
33440
33376
33316
33208
33114
32978
32984
32920
32872
32840
32768
32668
32628
32548
32474
32456
32384
32297
32218
32140
32036
31992
31892
31808
31704
31627
31546
31458
31592
31320
31234
31348
31280
31192
31112
31016
30912
30818
30756
30688
30596
30508
30436
30376
30322
30250
30164
30048
29960
29928
29874
29728
29596
29508
29444
29344
29282
29186
29296
29208
29088
29008
28888
28792
28753
28713
28636
28546
28460
28376
28300
28226
28120
27992
27860
27804
27720
27656
27580
27512
27426
27360
27288
27204
27256
27146
27032
26920
26848
26772
26688
26626
26544
26464
26370
26296
26232
26169
26072
26001
25947
25915
25844
25778
25708
25640
25562
25492
25418
25320
25248
25192
25116
25044
25004
24948
24882
24780
24692
24612
24564
24450
24376
24288
24280
24216
24093
23968
23928
23838
23720
23668
23640
23596
23560
23512
23456
23484
23392
23338
23264
23202
23128
23048
22954
22892
22816
22752
22728
22670
22600
22514
22448
22428
22340
22320
22244
22210
22144
22096
22096
21936
21947
21826
21864
21684
21712
21520
21580
21424
21428
21360
21326
21260
21244
21180
21144
21116
20916
20972
20928
20912
20852
20808
20790
20584
20641
20472
20501
20402
20412
20332
20318
20224
20234
20140
20150
20100
20096
20034
20012
19949
19924
19918
19816
19836
19728
19728
19536
19630
19436
19504
19372
19402
19376
19380
19321
19312
19317
19106
19168
19082
19084
19049
19012
18956
18916
18840
18852
18712
18670
18682
18676
18612
18600
18532
18464
18456
18426
18381
18417
18380
18360
18360
18348
18360
18320
18269
18234
18202
18145
18134
18104
18081
18056
18044
18048
18032
17988
17968
17971
17957
17928
17914
17892
17874
17824
17784
17736
17730
17729
17708
17656
17643
17628
17562
17570
17578
17620
17690
17648
17622
17584
17568
17545
17550
17528
17543
17538
17498
17458
17456
17452
17476
17469
17402
17344
17344
17334
17314
17328
17292
17292
17277
17282
17336
17326
17318
17268
17200
17240
17292
17276
17249
17220
17224
17244
17216
17096
17112
17152
17190
17168
17140
17104
17077
17056
17048
17012
16998
16972
16992
16986
16968
16944
16923
16902
16890
16865
16834
16825
16805
16790
16758
16738
16705
16680
16658
16634
16594
16580
16564
16573
16536
16498
16388
16373
16392
16408
16384
16401
16384
16348
16328
16280
16236
16205
16176
16146
16112
16084
16058
16034
16008
16000
15960
15918
15890
15872
15856
15836
15788
15739
15680
15618
15588
15582
15552
15568
15528
15486
15464
15456
15429
15400
15339
15282
15260
15234
15216
15205
15196
15186
15179
15188
15180
15170
15168
15149
15172
15184
15236
15282
15304
15325
15384
15448
15501
15590
15684
15808
15934
16068
16184
16368
16532
16744
16960
17189
17418
17716
17970
18256
18554
18840
19176
19512
19866
20240
20612
21016
21416
21781
22180
22594
22988
23428
23882
24368
24856
25328
25800
26312
26824
27304
27812
28333
28820
29324
29828
30330
30840
31476
31960
32330
32912
33288
33944
34416
34840
35380
35737
36324
36664
37240
37616
38176
38544
39108
39432
39856
40314
40764
41236
41624
42064
42421
42810
43176
43568
43954
44346
44684
45005
45362
45924
46256
46610
46720
47116
47496
47778
48064
48378
48676
48992
49296
49608
49888
50192
50450
50696
50938
51168
51404
51624
51832
51952
52043
52160
52372
52569
52713
52872
53032
53172
53296
53336
53436
53504
53632
53760
53816
53888
53976
54068
54128
54216
54280
54120
54204
54394
54560
54660
54652
54552
54456
54432
54408
54424
54400
54368
54354
54344
54344
54312
54184
54296
54308
54304
54288
54200
53928
53850
53744
53664
53616
53568
53488
53448
53464
53352
53224
53144
52984
52840
52772
52508
52424
52288
52168
52032
51880
51744
51632
51520
51460
51396
51232
51044
50864
50664
50480
50312
50160
49956
49696
49744
49572
49408
49248
49084
48920
48744
48584
48416
48232
48064
47876
47712
47538
47360
47184
46996
46824
46640
46260
46140
45968
45776
45600
45408
45200
45008
44784
44584
44372
44192
43992
43826
43688
43480
43264
43072
42880
42704
42544
42324
42120
41928
41728
41488
41296
41064
40896
40712
40544
40316
40145
40044
39920
39732
39554
39396
39232
39072
38706
38584
38432
38296
38160
38105
37960
37856
37696
37592
37484
37336
37192
37064
36952
36840
36731
36624
36368
36274
36192
36136
36040
35984
35933
35872
35793
35762
35732
35648
35576
35504
35432
35388
35328
35280
35244
35210
35172
35140
35124
35104
35080
35056
35040
35036
34856
34856
34843
34832
34840
34904
34976
35020
34988
34981
35000
35021
35024
35060
35076
35104
35122
35138
35156
35192
35034
35080
35109
35168
35276
35368
35392
35388
35388
35416
35460
35504
35544
35576
35612
35656
35682
35712
35754
35788
35808
35840
35868
35898
35924
35960
35988
36024
35808
35876
35898
35954
36024
36073
36124
36152
36172
36208
36240
36304
36336
36361
36384
36380
36356
36312
36313
36312
36336
36348
36360
36384
36392
36388
36392
36396
36384
36376
36364
36360
36336
36332
36320
36296
36226
36208
36224
36224
36176
36178
36156
36140
36108
36082
36066
36044
36020
36002
35744
35720
35688
35636
35596
35552
35496
35680
35612
35544
35473
35484
35480
35466
35416
35346
35258
35136
35068
34996
34932
34880
34848
34784
34736
34640
34556
34460
34384
34306
34225
34219
34341
34272
34192
34125
34060
33986
33928
33786
33756
33592
33592
33456
33418
33284
33264
33156
33160
33002
32992
32856
32857
32714
32712
32620
32562
32496
32440
32324
32128
32104
31978
31988
31864
31825
31672
31632
31464
31468
31388
31298
31218
31137
31072
30978
30884
30816
30716
30636
30536
30464
30376
30266
30136
30064
29964
29872
29773
29696
29624
29604
29362
29284
29209
29138
29056
28982
28944
28908
28764
28724
28644
28564
28480
28416
28308
28248
28138
28028
27896
27881
27809
27720
27604
27441
27392
27392
27202
27188
27069
27032
26884
26832
26724
26686
26544
26544
26401
26376
26240
26200
26081
26036
25937
25904
25796
25740
25600
25636
25472
25494
25456
25224
25236
25076
25066
24928
24860
24816
24768
24784
24701
24629
24544
24460
24386
24316
24248
24136
24072
23992
23916
23840
23768
23688
23648
23580
23497
23418
23348
23300
23232
23160
23104
23045
22976
22924
22866
22800
22744
22680
22644
22561
22484
22432
22368
22312
22162
22100
22048
22043
21968
21896
21836
21824
21705
21612
21536
21488
21386
21302
21268
21280
21258
21176
21116
21084
21056
21020
20844
20748
20824
20752
20744
20658
20532
20468
20529
20452
20464
20361
20258
20164
20146
20152
20163
20090
20052
20028
20016
19896
19852
19750
19693
19683
19742
19684
19656
19656
19594
19528
19509
19472
19416
19408
19384
19356
19321
19272
19224
19188
19164
19128
19086
19076
19044
19020
19016
18986
18952
18865
18762
18764
18808
18824
18785
18736
18698
18669
18626
18598
18578
18552
18506
18484
18448
18424
18404
18376
18360
18333
18292
18280
18246
18248
18214
18194
18164
18130
18112
18088
18066
18030
18000
17970
17948
17922
17913
17892
17888
17864
17764
17684
17656
17697
17694
17732
17704
17682
17644
17625
17596
17545
17528
17494
17440
17348
17390
17378
17417
17376
17316
17338
17232
17272
17157
17200
17156
17156
17080
17094
17032
17061
16958
17028
16992
16968
16948
16932
16912
16888
16868
16849
16780
16737
16696
16646
16589
16576
16580
16604
16598
16569
16520
16508
16497
16476
16468
16444
16368
16306
16276
16268
16268
16274
16268
16256
16226
16191
16172
16169
16174
16172
16172
16184
16192
16193
16200
16181
16206
16204
16258
16280
16325
16368
16394
16448
16536
16617
16778
16872
17000
17137
17272
17370
17506
17716
17917
18084
18307
18541
18812
19074
19336
19588
19889
20176
20480
20800
21130
21488
21832
22132
22495
22872
23248
23654
24096
24520
24929
25352
25784
26254
26724
27216
27672
28132
28560
29016
29492
29920
30408
30880
31332
31800
32282
32724
33176
33618
34058
34488
34912
35332
35788
36242
36676
37040
37472
37860
38274
38680
39120
39522
39937
40272
40648
41028
41408
41800
42176
42516
42850
43208
43568
43896
44232
44552
44704
45072
45396
45768
46120
46364
46610
46840
47168
47416
47456
47844
48114
48400
48664
48928
49180
49264
49384
49576
49764
49948
50128
50316
50312
50616
50880
51096
51224
51212
51272
51384
51472
51578
51672
51760
51840
51920
52000
52072
52104
52146
52216
52288
52528
52576
52576
52562
52512
52448
52440
52312
52472
52432
52402
52498
52360
52448
52288
52320
52208
52192
52136
52128
52016
52010
51904
52032
51816
51904
51680
51752
51288
51464
51132
51384
51106
51168
50880
50784
50696
50444
50498
50216
50288
49924
50072
49866
49856
49456
49464
49296
49176
49008
48896
48810
48608
48544
48110
48224
48008
47904
47680
47584
47368
47232
47044
46920
46522
46548
46200
46136
45792
45836
45456
45400
45113
45002
44764
44560
44370
44160
43968
43768
43556
43354
43154
42960
42776
42596
42390
42200
41984
41824
41664
41456
41216
41000
40824
40624
40428
40216
40016
39796
39592
39432
39208
39033
38856
38656
38468
38276
38096
37888
37688
37508
37340
37152
36994
36816
36640
36464
36296
36136
35978
35860
35712
35496
35336
35128
35000
34864
34720
34608
34496
34372
34248
34144
34032
33932
33832
33748
33668
33569
33504
33433
33360
33432
33368
33304
33256
33208
33152
33108
33060
33028
32864
32816
32832
32864
32920
32908
32906
32880
32870
32820
32778
32764
32772
32776
32804
32818
32848
32856
32888
32914
32952
33116
33150
33176
33218
33252
33304
33336
33372
33424
33492
33418
33584
33492
33688
33620
33800
33712
33944
33984
34000
34064
34080
34164
34116
34240
34168
34396
34268
34516
34380
34656
34488
34712
34578
34860
34872
34908
34950
35020
34840
35072
34920
35192
35176
35168
35236
35168
35266
35212
35344
35248
35498
35492
35468
35496
35432
35536
35388
35656
35624
35529
35584
35524
35600
35536
35636
35513
35744
35728
35762
35522
35692
35664
35648
35688
35744
35728
35625
35592
35548
35460
35400
35428
35568
35530
35466
35436
35428
35459
35442
35442
35434
35388
35324
35208
35168
35116
35056
35009
34952
34873
34840
34784
34872
34844
34752
34792
34672
34660
34568
34545
34466
34445
34378
34397
34272
34292
34264
34200
33924
33908
33866
33816
33731
33696
33620
33554
33504
33458
33378
33392
33404
33296
33184
33076
33028
32996
32932
32856
32764
32656
32560
32484
32426
32368
32304
32252
32210
32137
32056
31944
31772
31780
31685
31640
31507
31488
31324
31328
31165
31176
31088
31042
30956
30896
30808
30556
30628
30401
30496
30240
30352
30090
30184
30112
30020
29788
29760
29624
29658
29472
29496
29416
29236
29240
29064
29088
28928
28964
28786
28800
28613
28620
28484
28474
28308
28322
28320
28080
28016
27912
27844
27816
27792
27760
27628
27572
27545
27480
27388
27300
27224
27137
27024
27004
26884
26864
26756
26776
26620
26602
26482
26512
26480
26360
26360
26252
26120
26110
26098
25884
25932
25800
25858
25768
25637
25656
25520
25532
25508
25388
25372
25224
25256
25163
25065
25032
25024
24848
24900
24736
24810
24733
24664
24641
24536
24488
24348
24416
24286
24216
24156
24088
24020
23965
23920
23869
23824
23778
23748
23692
23656
23609
23568
23480
23456
23448
23426
23408
23357
23269
23204
23156
23090
23056
23021
22996
22968
22936
22824
22752
22728
22672
22620
22584
22608
22530
22486
22420
22369
22316
22260
22228
22168
22140
22075
21936
21860
21780
21740
21672
21584
21568
21620
21570
21516
21466
21384
21345
21304
21260
21216
21176
21128
21024
20961
20906
20820
20724
20690
20653
20592
20596
20632
20576
20520
20468
20398
20362
20312
20269
20212
20170
20146
20084
20000
19898
19864
19897
19880
19856
19872
19840
19790
19753
19664
19608
19546
19488
19433
19387
19412
19434
19352
19289
19288
19249
19224
19186
19152
19126
19096
19068
19034
18968
18924
18912
18894
18874
18856
18820
18804
18784
18772
18666
18577
18565
18632
18665
18618
18634
18658
18620
18580
18550
18547
18592
18688
18730
18738
18788
18836
18912
18968
19040
19120
19216
19324
19424
19572
19714
19864
20026
20220
20394
20584
20816
21018
21224
21452
21699
21968
22240
22524
22810
23116
23429
23776
24124
24472
24832
25204
25560
25964
26352
26744
27152
27528
27936
28352
28740
29148
29528
29944
30373
30804
31256
31528
31938
32360
32784
33204
33632
34072
34466
34904
35304
35696
36121
36560
36980
37388
37786
38144
38500
38880
39208
39553
39992
40352
40708
41064
41192
41588
41930
42308
42672
43028
43416
43752
44048
44320
44576
44844
45184
45420
45684
46048
46360
46616
46864
47112
47376
47616
47816
48074
48288
48466
48620
48824
48960
49076
49176
49377
49512
49808
50008
50140
50276
50416
50544
50674
50792
50904
51016
51124
51208
51280
51384
51436
51556
51664
51856
51912
51984
52032
52088
52128
52152
52176
52208
52224
52212
52128
52024
52152
52080
52120
52192
52146
52128
51864
51864
51992
51784
51928
51704
51848
51600
51728
51280
51564
51152
51336
51152
51072
51040
50952
50848
50744
50652
50552
50444
50328
50232
50120
50008
49889
49764
49664
49384
49312
49210
49060
48904
48784
48696
48540
48388
48224
48132
48000
47872
47712
47592
47440
47242
47136
46940
46776
46610
46448
46288
46098
45928
45768
45572
45384
45168
44984
44786
44580
44408
44256
44084
43872
43696
43488
43224
43096
42760
42696
42308
42320
42106
41928
41696
41520
41282
41064
40889
40704
40480
40308
39880
39908
39512
39536
39112
39156
38762
38784
38404
38360
38044
38004
37664
37640
37320
37306
36956
37008
36788
36672
36480
36280
36172
35912
35876
35586
35652
35480
35352
35218
35024
34978
34762
34744
34560
34520
34434
34152
34240
33977
34048
33808
33728
33658
33736
33672
33612
33552
33496
33444
33394
33380
33274
33160
33104
33073
33042
33024
33120
32972
33140
32968
33144
32952
33072
32968
33114
33152
33010
33146
33036
33188
33244
33226
33248
33266
33308
33356
33232
33272
33312
33346
33412
33448
33475
33528
33572
33636
33784
33872
33816
33952
33984
34056
34136
33984
34144
34112
34280
34200
34348
34292
34456
34368
34538
34460
34680
34544
34813
34622
34832
34738
34904
34816
34984
34852
35080
34940
35184
35192
35214
35232
35172
35268
35194
35320
35224
35460
35464
35494
35488
35544
35536
35584
35346
35596
35380
35612
35412
35625
35400
35648
35432
35626
35432
35666
35644
35640
35632
35588
35612
35500
35524
35424
35608
35560
35552
35488
35360
35396
35256
35440
35400
35420
35344
35227
35224
35120
35232
35004
35216
34909
35152
35050
34936
34928
34936
34804
34792
34708
34688
34512
34720
34664
34612
34520
34410
34400
34308
34266
34196
34196
34018
34188
33896
34000
33800
33852
33696
33720
33600
33592
33488
33480
33380
33396
33260
33264
33144
33176
33076
33064
33032
32928
32880
32788
32729
32636
32544
32488
32320
32306
32171
32146
32008
32128
32044
31941
31888
31728
31722
31552
31524
31392
31376
31256
31304
31240
31010
31016
30932
30936
30873
30632
30658
30576
30508
30437
30358
30336
30264
30196
30120
30048
30004
29924
29690
29600
29552
29472
29408
29344
29261
29200
29133
29068
28997
28937
28864
28800
28728
28657
28592
28524
28454
28380
28312
28248
28168
28112
28036
27960
27926
27836
27772
27720
27664
27610
27560
27505
27482
27432
27356
27306
27260
27196
27152
27058
26976
26902
26848
26796
26776
26724
26664
26626
26554
26506
26464
26420
26372
26312
26240
26194
26142
26096
26034
26001
25976
25804
25706
25672
25720
25664
25592
25538
25500
25482
25472
25452
25304
25250
25220
25152
25096
25016
24960
24898
24880
24848
24840
24816
24808
24768
24732
24700
24628
24600
24584
24540
24460
24410
24372
24313
24288
24272
24236
24206
24140
24065
24029
23970
23914
23896
23874
23835
23768
23744
23684
23680
23642
23520
23436
23426
23436
23440
23364
23297
23298
23172
23073
23096
23101
23126
23037
23012
22904
22852
22960
22852
22792
22768
22680
22564
22592
22644
22537
22520
22432
22340
22376
22232
22336
22308
22188
22178
22144
22210
21970
22056
22048
21898
21938
21908
21728
21800
21687
21696
21588
21636
21488
21578
21440
21532
21410
21476
21408
21352
21312
21232
21228
21120
21176
21073
21092
21068
20948
20980
20829
20964
20898
20786
20816
20694
20757
20633
20714
20561
20674
20520
20632
20512
20588
20424
20532
20450
20445
20428
20372
20376
20348
20356
20312
20357
20256
20384
20288
20384
20340
20458
20488
20549
20561
20632
20728
20712
20842
20784
20993
20984
21172
21282
21456
21578
21808
21952
22114
22368
22408
22746
22944
23228
23524
23714
24028
24224
24592
24779
25184
25429
25880
26132
26412
26844
27122
27584
27872
28348
28696
29098
29434
29873
30180
30674
31044
31476
31880
32100
32620
32912
33430
33780
34248
34696
34856
35424
35804
36048
36672
37040
37416
37802
38184
38560
38824
39256
39520
40000
40304
40748
41044
41448
41728
42184
42508
42904
43216
43560
43944
43992
44560
44680
45090
45360
45676
45946
46248
46560
46858
47192
47400
47760
47680
48264
48256
48644
48736
49176
49150
49580
49712
49920
50160
50416
50632
50832
51032
51207
51360
51544
51676
51808
51960
52128
52224
52336
52388
52464
52632
52584
52768
52810
52788
53128
52852
53184
53026
53176
53272
53256
53360
53328
53528
53416
53656
53300
53465
53586
53456
53648
53480
53696
53328
53437
53488
53344
53456
53276
53464
53232
52980
52904
52960
53024
52960
52930
52920
52896
52880
52852
52696
52544
52376
52272
52160
52068
52032
52050
51968
51840
51728
51648
51552
51420
51240
51040
50912
50784
50656
50528
50408
50300
50184
50060
49912
49780
49640
49336
49300
49192
49144
49034
48820
48608
48452
48336
48192
48042
47888
47724
47576
47428
47268
47114
46944
46564
46432
46352
46226
46122
45904
45739
45584
45424
45140
44992
44856
44760
44584
44388
44164
44032
43852
43680
43508
43124
42960
42804
42642
42492
42404
42328
42124
41928
41768
41624
41484
41330
41176
40833
40672
40530
40576
40228
40288
39896
39992
39652
39680
39364
39448
39296
39196
39064
38960
38824
38764
38616
38496
38400
38168
38186
37932
38036
37912
37796
37744
37576
37576
37540
37440
37364
37312
37280
37189
37152
37090
37076
36844
36948
36932
36696
36816
36656
36760
36680
36697
36704
36456
36666
36616
36592
36596
36592
36584
36584
36588
36584
36592
36592
36608
36600
36608
36632
36624
36632
36648
36650
36684
36696
36712
36744
36776
36584
36608
36653
36680
36712
36764
36816
36856
36891
36921
36994
37048
36992
37001
37032
37044
37064
37060
37040
37252
37269
37256
37280
37312
37352
37344
37386
37392
37440
37476
37520
37546
37560
37562
37568
37536
37504
37504
37513
37532
37546
37562
37548
37544
37560
37588
37584
37600
37624
37620
37628
37605
37616
37610
37596
37596
37568
37556
37524
37536
37528
37540
37316
37304
37296
37288
37296
37306
37312
37356
37392
37360
37332
37244
37192
37120
37075
37028
36987
36982
36936
36912
36852
36856
36840
36808
36780
36746
36460
36416
36377
36304
36266
36232
36218
36162
36080
36032
36001
36032
36004
35916
35972
35952
35816
35784
35608
35786
35704
35664
35528
35440
35400
35280
35276
35194
35162
35024
34968
34840
34848
34712
34752
34542
34720
34616
34546
34450
34324
34320
34156
34168
34004
33976
33860
33824
33672
33689
33528
33560
33440
33409
33296
33292
33162
33152
33016
32996
32872
32857
32764
32768
32712
32648
32608
32299
32412
32177
32240
32020
32138
32056
31992
31940
31882
31616
31720
31484
31556
31337
31420
31200
31280
31056
31136
30908
30928
30792
30786
30674
30712
30578
30592
30452
30472
30340
30348
30202
30219
30168
30094
30024
29993
29889
29853
29728
29694
29508
29556
29401
29408
29288
29326
29170
29224
29072
29112
29008
29020
28896
28881
28776
28764
28580
28632
28456
28516
28452
28480
28361
28208
28201
28098
28132
28144
28000
27980
27829
27836
27724
27788
27740
27572
27604
27448
27492
27328
27376
27248
27244
27161
27160
27041
27096
26960
27018
26853
26892
26760
26784
26680
26672
26596
26592
26496
26536
26544
26440
26440
26346
26331
26213
26218
26057
26080
25992
25978
25916
25957
25822
25864
25828
25658
25712
25542
25628
25433
25460
25412
25412
25392
25224
25264
25188
25189
25240
25032
25048
24920
24952
24874
24880
24780
24784
24689
24664
24536
24609
24464
24564
24496
24400
24364
24250
24352
24204
24144
24132
24148
24101
24060
23994
23952
23904
23836
23768
23712
23666
23676
23616
23560
23497
23392
23324
23292
23297
23288
23264
23226
23168
23132
23089
23050
23000
22944
22902
22836
22756
22745
22718
22746
22746
22708
22668
22643
22604
22565
22528
22464
22416
22390
22344
22344
22338
22324
22324
22232
22186
22150
22076
22060
22032
22072
22108
22096
22076
22040
22040
22100
22060
22170
22144
22253
22216
22260
22322
22308
22436
22386
22610
22544
22789
22784
23016
22988
23232
23260
23488
23588
23780
23920
24153
24288
24544
24704
24961
25112
25448
25600
25978
26184
26508
26712
27058
27264
27624
27865
28204
28400
28816
29042
29448
29666
30068
30300
30708
30962
31362
31608
32048
32377
32732
33106
33232
33689
33969
34400
34704
35072
35410
35740
36100
36180
36704
36832
37386
37464
38034
38112
38580
38848
39244
39496
39872
40128
40468
40692
41044
41268
41616
41904
42162
42364
42634
42829
43160
43304
43698
43808
44184
44240
44650
44712
45080
45144
45546
45578
45880
46040
46240
46444
46612
46800
46968
47130
47248
47332
47666
47752
47928
48016
48240
48272
48480
48488
48650
48688
48800
48860
48940
49024
49100
49152
49216
49344
49208
49540
49464
49576
49528
49536
49656
49664
49802
49682
49792
49680
49680
49692
49716
49664
49664
49648
49616
49576
49552
49520
49592
49480
49568
49428
49520
49232
49240
49216
49136
49072
49048
48832
49026
48856
48880
48704
48705
48552
48556
48280
48256
48184
48096
48056
47928
47888
47744
47692
47388
47456
47216
47168
47048
46944
46784
46704
46536
46466
46304
46224
46044
45980
45808
45728
45548
45482
45320
45240
45012
44944
44744
44696
44456
44388
44144
44092
43908
43792
43656
43314
43288
43048
43024
42784
42716
42544
42402
42264
41912
41898
41776
41440
41312
41188
41112
40992
40792
40600
40472
40304
39944
39817
39656
39506
39376
39224
39080
38912
38760
38616
38632
38492
38340
38200
38068
37914
37776
37640
37508
37368
37248
37128
36816
36708
36608
36484
36380
36276
36172
36070
36068
35976
35928
35852
35754
35620
35528
35444
35364
35138
35056
34980
34928
34920
34900
34896
34872
34800
34720
34672
34632
34584
34548
34486
34426
34404
34372
34344
34320
34304
34280
34268
34256
34065
34060
34080
34096
34192
34224
34173
34176
34196
34036
34026
34034
34040
34038
34050
34058
34076
34090
34101
34107
34138
34158
34168
34186
34216
34250
34288
34360
34460
34420
34388
34416
34552
34569
34625
34656
34669
34712
34728
34752
34774
34776
34728
34752
34832
34872
34904
34928
34952
34948
34974
34986
35002
35008
34962
34952
34960
34964
34976
35048
35040
35068
35096
35096
35140
35128
35064
35072
35100
35074
35104
35152
34900
35088
34886
35068
34928
34996
34950
35050
35088
34852
34946
34824
34880
34924
34994
34984
34936
34884
34808
34785
34746
34712
34696
34712
34688
34664
34632
34616
34372
34376
34368
34320
34304
34290
34304
34256
34248
34300
34296
34144
34096
34040
34048
34008
33965
33922
33876
33832
33784
33736
33706
33664
33616
33568
33528
33480
33422
33368
33320
33264
33216
33156
33098
33048
33000
32948
32754
32676
32656
32604
32562
32516
32480
32424
32388
32408
32392
32298
32188
32100
32092
32066
31828
31796
31768
31812
31736
31608
31545
31488
31434
31352
31300
31268
31216
31176
31096
31053
30828
30776
30716
30660
30584
30528
30452
30386
30392
30396
30354
30268
30152
30080
30044
30013
29964
29928
29700
29640
29568
29508
29440
29378
29324
29252
29188
29124
29064
28996
28937
28884
28888
28856
28800
28704
28641
28564
28512
28424
28338
28292
28228
28172
28264
28192
28116
28068
28004
27940
27858
27801
27724
27688
27540
27562
27458
27433
27340
27380
27256
27280
27128
27152
27020
27040
26898
26900
26796
26828
26700
26732
26597
26592
26512
26484
26378
26424
26265
26328
26180
26226
26105
26168
26066
25962
25984
25868
25873
25784
25808
25810
25688
25698
25564
25613
25540
25440
25452
25352
25368
25380
25283
25189
25168
25068
25056
24958
25012
24924
24900
24882
24768
24865
24788
24716
24678
24632
24620
24620
24548
24492
24432
24402
24385
24348
24340
24304
24280
24252
24224
24189
24168
24132
24108
24091
23978
23916
23858
23788
23744
23749
23701
23658
23608
23560
23536
23492
23608
23464
23568
23488
23520
23456
23392
23384
23304
23312
23196
23332
23236
23144
23130
23180
23170
23048
23082
23048
23016
22979
22918
22888
22876
22836
22826
22824
22800
22794
22680
22649
22616
22568
22528
22472
22406
22391
22326
22392
22385
22330
22322
22276
22236
22208
22222
22218
22130
22124
22090
22049
22024
21938
21856
21826
21822
21884
21872
21824
21784
21732
21728
21729
21680
21656
21613
21597
21508
21626
21520
21472
21456
21376
21404
21284
21408
21312
21360
21272
21244
21238
21200
21188
21138
21128
21072
21050
20952
21028
20890
20992
20867
20984
20904
20948
20882
20845
20848
20856
20768
20840
20760
20772
20788
20712
20756
20648
20782
20721
20768
20781
20754
20779
20696
20872
20832
20960
20978
20945
21074
21056
21280
21312
21392
21516
21578
21692
21793
21964
22016
22292
22328
22656
22768
23018
23192
23356
23616
23784
23938
24201
24472
24744
25026
25296
25608
25992
26168
26564
26850
27116
27416
27732
28064
28402
28642
29104
29426
29640
30072
30312
30724
30981
31424
31672
32144
32336
32848
33000
33536
33669
34196
34336
34811
34976
35448
35664
36128
36352
36744
36968
37376
37617
38008
38209
38624
38816
39216
39392
39788
39956
40372
40504
40888
41112
41464
41636
41977
42208
42484
42752
42968
43264
43448
43704
43896
44152
44305
44564
44728
44948
44932
45320
45450
45664
45792
45944
45980
46208
46361
46536
46700
46812
47000
47072
47209
47296
47360
47488
47576
47672
47816
47840
47992
47792
48084
48040
48138
48208
48264
48400
48376
48396
48390
48464
48402
48488
48504
48524
48592
48552
48636
48544
48520
48468
48488
48560
48468
48528
48424
48444
48356
48384
48273
48300
48184
48216
48096
48090
47972
47962
47832
47720
47692
47584
47568
47464
47408
47288
47224
47084
47072
46816
46944
46666
46784
46488
46536
46304
46394
46256
46064
46016
45944
45782
45716
45488
45456
45248
45232
45000
45040
44928
44784
44682
44488
44424
44180
44168
43928
43904
43656
43672
43416
43384
43178
43124
42840
42832
42538
42540
42248
42270
42144
41852
41824
41554
41552
41408
41232
41112
40868
40824
40516
40514
40236
40204
39920
39936
39620
39640
39456
39356
39208
39064
38938
38636
38506
38376
38208
38072
37946
37960
37820
37700
37572
37456
37336
37064
37120
36972
36828
36756
36506
36544
36292
36338
36121
36128
36036
35936
35853
35752
35628
35568
35408
35408
35216
35256
35048
35112
34908
35016
34784
34880
34824
34712
34720
34532
34652
34592
34528
34496
34432
34418
34322
34368
34226
34320
34148
34332
34268
34258
34252
34260
34232
34240
34228
34242
34224
34132
34225
34080
34216
34088
34224
34108
34240
34116
34282
34156
34342
34176
34392
34392
34440
34272
34448
34296
34476
34348
34528
34376
34576
34422
34560
34466
34644
34480
34720
34708
34716
34746
34684
34772
34688
34872
34784
34922
34926
34968
34756
34968
34800
34948
34860
34996
35008
35044
35088
34896
35032
34964
35092
35136
35137
35176
34960
35160
34952
35168
35154
35162
35128
35146
35144
35168
34936
35168
34936
35064
34948
35060
34920
35072
35088
35096
35060
35066
35024
35034
34772
34976
34732
34928
34892
34896
34680
34840
34600
34748
34564
34636
34548
34640
34524
34592
34616
34362
34440
34368
34410
34426
34176
34300
34234
34164
34176
34152
33928
33936
34016
34036
33932
33848
33792
33785
33760
33712
33490
33440
33433
33376
33312
33236
33176
33121
33104
33068
33100
33132
33076
32961
32924
32872
32792
32740
32720
32676
32636
32396
32344
32276
32224
32176
32128
32068
32016
31952
31882
31836
31908
31840
31808
31739
31700
31464
31517
31368
31376
31240
31277
31124
31137
30980
31026
30912
30892
30844
30664
30696
30546
30586
30436
30472
30312
30360
30240
30251
30194
29992
30018
29872
29924
29880
29684
29736
29672
29500
29522
29484
29344
29344
29296
29324
29216
29060
29068
28952
28940
28816
28856
28724
28764
28696
28676
28568
28400
28408
28280
28328
28178
28224
28072
28120
27944
28012
27868
27908
27760
27804
27656
27680
27585
27608
27536
27360
27376
27232
27296
27244
27140
27164
27034
27072
26932
26980
26958
26873
26858
26772
26648
26650
26522
26504
26428
26358
26272
26312
26312
26214
26208
26185
26060
26000
25948
26012
25933
25952
25752
25772
25776
25716
25656
25562
25474
25440
25445
25465
25376
25377
25396
25212
25128
25092
25056
25130
25148
25074
24984
24960
24844
24904
24768
24825
24698
24768
24648
24724
24642
24570
24558
24480
24496
24376
24464
24394
24344
24356
24216
24256
24156
24181
24120
24122
24020
24097
23963
24062
23904
24008
23906
23992
23872
23952
23824
23884
23728
23824
23674
23754
23612
23684
23584
23649
23512
23632
23564
23530
23528
23453
23468
23378
23460
23329
23440
23288
23404
23284
23328
23328
23308
23289
23256
23256
23200
23184
23154
23136
23128
23108
23077
23080
23044
23040
22992
23036
22986
22984
22938
22941
22888
22884
22772
22880
22856
22808
22798
22688
22778
22700
22620
22658
22704
22696
22672
22628
22596
22578
22560
22531
22509
22496
22472
22448
22424
22396
22386
22364
22401
22428
22268
22352
22200
22273
22188
22233
22192
22226
22174
22184
22138
22132
22152
21984
22083
21920
22064
21984
21976
21965
22008
21940
21892
21904
21860
21868
21904
21824
21852
21776
21721
21698
21624
21612
21508
21600
21482
21556
21525
21424
21518
21408
21520
21438
21384
21380
21296
21365
21212
21324
21184
21276
21141
21244
21124
21216
21084
21184
21116
21112
21092
20960
21116
21081
20953
21058
20980
21084
21004
21013
21002
20896
21052
20994
21028
21084
21051
21080
21060
21171
21104
21238
21208
21410
21400
21588
21633
21728
21793
21960
21952
22176
22202
22444
22536
22744
22896
23098
23212
23520
23645
23980
24164
24477
24676
24928
25066
25440
25604
25988
26148
26552
26760
27128
27344
27756
28009
28384
28690
29040
29376
29700
30016
30336
30594
30986
31212
31648
31872
32296
32504
32920
33160
33584
33864
34240
34560
34896
35148
35522
35760
36168
36352
36752
36944
37352
37560
37968
38162
38532
38728
39098
39296
39680
39858
40208
40344
40728
40954
41236
41496
41748
41976
42016
42416
42552
42872
43032
43314
43526
43712
43924
43872
44274
44256
44624
44608
44906
45024
45266
45362
45578
45656
45796
45880
46104
46057
46392
46460
46556
46666
46784
46856
46984
47026
47120
47012
47240
47140
47360
47328
47434
47500
47584
47680
47680
47768
47640
47752
47808
47792
47844
47822
47840
47714
47768
47760
47786
47804
47776
47808
47576
47688
47649
47680
47680
47616
47600
47520
47512
47416
47411
47128
47244
47088
47080
46968
46944
46800
46836
46640
46736
46484
46560
46336
46416
46170
46216
45992
46048
45812
45840
45600
45680
45568
45456
45368
45264
45028
45048
44824
44832
44608
44616
44432
44416
44288
44068
44068
43916
43826
43672
43506
43444
43328
43026
43044
42792
42808
42596
42544
42410
42136
42156
41986
41880
41744
41456
41472
41296
41044
41048
40896
40604
40464
40304
40184
40040
40048
39914
39632
39636
39490
39360
39232
38960
38816
38676
38548
38425
38282
38298
38168
38044
37920
37784
37660
37536
37284
37184
37192
37084
36972
36730
36792
36520
36580
36464
36352
36248
36153
36064
35920
35880
35666
35700
35488
35540
35348
35396
35201
35252
35154
35122
35018
35008
34988
34772
34857
34696
34752
34636
34662
34529
34584
34588
34368
34488
34416
34452
34456
34252
34388
34388
34208
34344
34232
34324
34360
34176
34320
34248
34306
34336
34160
34298
34208
34312
34376
34204
34378
34234
34388
34416
34364
34440
34452
34472
34504
34496
34520
34544
34408
34444
34482
34602
34656
34720
34704
34704
34744
34786
34816
34825
34856
34916
34748
34768
34824
34848
34872
34920
35025
35096
35128
35100
35093
35104
35130
35144
35178
35214
35240
35260
35280
35312
35120
35148
35176
35218
35290
35394
35408
35402
35410
35394
35388
35404
35384
35340
35344
35370
35384
35380
35214
35186
35216
35200
35200
35196
35176
35160
35176
35232
35304
35289
35234
35188
35141
35160
35144
34952
34964
34964
34954
35024
35064
34992
34918
34920
34920
34680
34698
34744
34778
34772
34692
34585
34596
34568
34544
34496
34462
34428
34376
34360
34300
34264
34212
34168
34112
34076
34018
33968
33930
33672
33632
33584
33540
33522
33472
33456
33420
33400
33385
33400
33344
33248
33130
33040
33056
33048
33034
32784
32872
32664
32776
32560
32612
32481
32536
32464
32288
32328
32208
32264
32240
31993
32068
31900
31930
31792
31840
31760
31720
31696
31456
31492
31348
31368
31252
31316
31116
31072
31106
31116
30976
30914
30890
30872
30643
30573
30520
30465
30400
30376
30360
30364
30320
30258
30072
30096
29994
30048
29984
29788
29812
29672
29736
29696
29502
29508
29376
29444
29364
29280
29200
29152
29117
29080
29029
28972
28934
28876
28824
28776
28725
28576
28508
28454
28388
28336
28252
28276
28274
28232
28140
28060
28036
27988
27941
27888
27860
27844
27660
27600
27542
27544
27556
27512
27456
27392
27330
27292
27236
27144
27094
27032
26980
26945
26904
26860
26814
26774
26736
26688
26650
26589
26544
26488
26464
26452
26464
26281
26216
26128
26092
26154
26128
26080
26048
25996
25945
25912
25864
25826
25796
25748
25704
25662
25620
25618
25608
25597
25568
25428
25377
25356
25309
25248
25192
25218
25232
25226
25208
25172
25106
25112
25121
25004
24952
24868
24864
24932
24891
24865
24801
24776
24776
24800
24674
24619
24552
24548
24596
24584
24522
24544
24548
24450
24384
24304
24368
24390
24312
24288
24264
24284
24261
24120
24200
24067
24136
24025
24128
23978
24065
23948
23996
23952
23952
23900
23888
23795
23764
23760
23744
23784
23792
23730
23698
23690
23696
23672
23670
23653
23684
23672
23557
23534
23504
23464
23416
23392
23364
23333
23298
23261
23250
23237
23232
23222
23156
23144
23133
23204
23092
23162
23072
23144
23009
23136
23082
23033
23000
22904
22996
22896
23016
22948
22892
22864
22752
22908
22808
22888
22816
22760
22744
22688
22689
22586
22684
22565
22656
22555
22650
22562
22480
22497
22376
22524
22464
22424
22416
22332
22378
22256
22400
22320
22272
22238
22140
22232
22096
22214
22104
22196
22026
22152
22092
22060
22020
21928
22044
21896
22032
21984
21928
21900
21828
21928
21776
21906
21802
21928
21864
21840
21850
21776
21813
21725
21912
21796
21776
21922
21942
21936
22020
22016
21948
22041
22178
22202
22265
22382
22484
22617
22604
22657
22744
22896
23121
23292
23396
23564
23740
23952
24172
24249
24400
24564
24802
25080
25352
25568
25776
26029
26316
26576
26905
27062
27328
27593
27872
28176
28512
28820
29148
29480
29792
30074
30352
30636
30957
31282
31608
31762
32072
32400
32698
33017
33352
33700
34088
34444
34708
34960
35298
35594
35898
36196
36500
36576
36872
37200
37472
37748
38064
38385
38752
39024
39330
39584
39820
40008
40308
40564
40572
40832
41112
41376
41736
41936
42114
42316
42544
42796
42984
43184
43384
43584
43752
43936
44120
44265
44442
44608
44764
44704
44888
45048
45248
45424
45584
45688
45768
45768
45944
46064
46208
46300
46404
46516
46578
46656
46712
46828
46836
46936
46944
47028
47032
47124
47104
47184
46960
47136
47162
47228
47292
47112
47248
47260
47264
47298
47082
47260
47112
47176
47146
47146
47136
47088
47080
46850
46912
46848
46868
46784
46776
46752
46688
46584
46552
46484
46424
46356
46260
46204
46130
46044
45956
45872
45608
45529
45472
45386
45320
45228
45144
45044
44936
44848
44816
44752
44668
44568
44444
44310
44184
44096
43960
43832
43712
43634
43506
43368
43250
43133
43032
42912
42754
42650
42532
42384
42258
42128
41976
41832
41544
41394
41268
41112
40968
40820
40688
40536
40386
40242
40112
39996
39952
39764
39692
39552
39432
39272
39128
38970
38820
38674
38512
38368
38216
38080
37928
37644
37508
37432
37404
37292
37160
37012
36880
36754
36608
36344
36224
36188
36160
36032
35904
35776
35660
35540
35316
35200
35098
35008
35000
34928
34864
34826
34720
34625
34552
34472
34392
34180
34112
34064
34089
34052
34000
33920
33858
33804
33754
33712
33682
33648
33601
33576
33536
33508
33474
33450
33436
33412
33385
33376
33376
33216
33336
33328
33312
33317
33314
33304
33172
33324
33202
33336
33209
33376
33236
33372
33296
33410
33376
33448
33472
33332
33536
33384
33548
33428
33576
33488
33633
33588
33712
33708
33800
33816
33696
33864
33812
33920
33984
33952
33992
34036
33880
33936
33964
34024
34112
34202
34268
34253
34240
34280
34328
34348
34384
34204
34426
34434
34464
34280
34306
34336
34376
34482
34574
34528
34528
34568
34604
34434
34452
34504
34580
34604
34650
34696
34642
34596
34636
34644
34448
34432
34442
34496
34528
34572
34632
34544
34560
34564
34392
34496
34548
34448
34480
34288
34288
34320
34304
34372
34388
34352
34296
34204
34204
34202
34188
33992
34009
34084
34108
33984
34001
33978
33948
33736
33740
33730
33696
33754
33728
33714
33632
33599
33513
33460
33436
33384
33325
33330
33304
33088
33060
33072
33156
33092
32980
32910
32876
32856
32808
32744
32728
32473
32420
32416
32370
32368
32428
32368
32240
32220
32196
31984
31928
31912
31938
31946
31796
31784
31568
31536
31508
31522
31546
31418
31362
31360
31164
31128
31068
31040
31100
31056
30940
30848
30808
30784
30738
30528
30484
30432
30460
30466
30368
30258
30252
30084
30025
29958
30090
30024
29810
29770
29701
29680
29650
29682
29608
29492
29401
29380
29350
29312
29280
29072
29032
28980
28916
28865
28816
28768
28720
28640
28608
28573
28560
28464
28400
28380
28328
28264
28200
28136
28080
28068
28016
28004
27960
27916
27828
27772
27754
27616
27555
27501
27433
27384
27404
27396
27300
27217
27220
27226
27027
26968
26960
26976
26900
26828
26816
26802
26672
26602
26546
26616
26516
26450
26450
26440
26416
26244
26200
26114
26043
26049
25972
25920
25880
25841
25832
25788
25744
25680
25664
25688
25680
25616
25592
25546
25445
25409
25316
25256
25211
25188
25216
25184
25185
25112
25044
25008
24988
24961
24918
24921
24897
24880
24853
24716
24672
24604
24536
24588
24576
24568
24504
24464
24434
24372
24389
24392
24392
24266
24225
24172
24096
24100
24156
24132
24050
24080
24002
23928
23896
23954
23876
23922
23946
23816
23789
23724
23665
23730
23740
23706
23652
23672
23674
23584
23508
23428
23436
23476
23500
23458
23405
23384
23387
23388
23380
23372
23388
23401
23264
23212
23217
23192
23138
23120
23120
23112
23100
23096
23085
23060
23048
23040
23022
23004
22968
22940
22896
22882
22840
22808
22856
22904
22868
22816
22844
22878
22756
22688
22636
22745
22716
22654
22706
22698
22720
22634
22624
22584
22564
22524
22492
22476
22466
22416
22376
22354
22362
22348
22408
22408
22345
22388
22360
22344
22336
22324
22304
22288
22242
22210
22138
22178
22040
22184
22042
22146
21976
22072
21946
22096
22034
21970
21956
21908
21928
21864
21956
21924
21848
21853
21728
21888
21821
21754
21712
21600
21760
21701
21620
21592
21642
21620
21610
21612
21600
21530
21549
21572
21506
21448
21370
21322
21321
21376
21408
21360
21325
21318
21324
21340
21368
21266
21200
21180
21141
21140
21139
21144
21154
21136
21236
21328
21248
21200
21192
21248
21316
21416
21442
21480
21509
21601
21700
21800
21848
21890
21952
22168
22320
22428
22548
22690
22860
23052
23218
23416
23628
23848
24073
24296
24516
24772
25018
25309
25568
25740
26012
26288
26562
26825
27122
27532
27888
28152
28450
28804
29172
29508
29680
30010
30368
30704
31112
31502
31844
32220
32600
32933
33280
33584
33880
34220
34548
34880
35237
35584
35896
36210
36564
36868
37192
37560
37904
38224
38538
38660
38976
39280
39580
39964
40376
40716
40960
41184
41520
41796
42076
42132
42458
42720
43032
43328
43668
43892
44056
44328
44568
44804
45032
45234
45224
45488
45748
45954
46178
46348
46538
46708
46908
47104
47272
47424
47584
47720
47872
48010
48114
48266
48368
48492
48528
48576
48676
48776
48872
48952
49032
49104
49192
49252
49304
49368
49440
49496
49504
49546
49592
49628
49652
49664
49666
49640
49700
49632
49704
49696
49696
49732
49688
49770
49664
49720
49600
49608
49624
49552
49584
49552
49536
49456
49296
49280
49216
49156
49108
49040
48800
48764
48740
48729
48690
48672
48636
48480
48396
48312
48256
48161
48080
47816
47740
47672
47570
47512
47424
47336
47240
47130
47036
46992
46912
46808
46712
46620
46482
46368
46244
46108
46016
45900
45788
45664
45536
45380
45178
45152
44912
44896
44736
44640
44520
44224
44228
44016
43992
43818
43728
43584
43296
43288
43032
43032
42824
42740
42596
42298
42320
42112
42048
41904
41604
41628
41456
41188
41217
41068
40960
40822
40674
40384
40236
40120
39984
39940
39858
39764
39656
39504
39396
39268
38985
38882
38778
38664
38560
38480
38400
38300
38184
38176
38120
38036
37960
37880
37744
37674
37556
37412
37312
37216
37138
37056
37008
36984
37008
37004
36968
36880
36820
36784
36564
36508
36474
36480
36516
36544
36484
36444
36400
36396
36368
36352
36324
36156
36152
36160
36170
36180
36176
36210
36292
36296
36288
36264
36280
36288
36264
36232
36244
36272
36308
36304
36320
36339
36296
36316
36344
36392
36400
36444
36416
36348
36320
36360
36348
36320
36344
36346
36440
36576
36488
36620
36656
36668
36704
36728
36768
36568
36760
36576
36820
36808
36714
36776
36688
36896
36668
36920
36908
36936
36934
36932
36952
36864
36984
36896
36980
36906
37024
36928
37020
36984
37032
37012
37028
37020
37032
36948
37020
37040
37036
37088
36824
36972
36908
36968
36936
36994
36994
36976
36994
36722
36924
36696
36880
36746
36829
36856
36576
36792
36540
36736
36544
36636
36476
36584
36496
36508
36425
36460
36370
36408
36424
36376
36384
36314
36308
36032
36122
36052
36108
36112
35808
36052
35770
35848
35776
35836
35848
35530
35688
35506
35548
35449
35480
35442
35396
35332
35176
35232
35264
35000
35080
35116
34875
34936
34928
34736
34818
34709
34660
34416
34460
34552
34384
34396
34210
34272
34148
34130
33928
33864
33880
33944
33812
33804
33568
33561
33504
33552
33520
33480
33356
33248
33224
33202
32956
32930
32884
32864
32861
32852
32720
32656
32576
32568
32546
32288
32228
32194
32152
32204
32168
32004
31992
31932
31864
31832
31588
31544
31476
31426
31376
31325
31248
31200
31312
31269
31016
30960
30930
30968
30824
30848
30785
30752
30672
30488
30562
30376
30400
30266
30288
30168
30176
30036
30085
29954
30002
29970
29760
29768
29657
29724
29664
29488
29476
29370
29418
29344
29208
29236
29121
29148
29040
29096
29030
28864
28860
28748
28804
28724
28744
28652
28472
28484
28373
28432
28380
28324
28288
28220
28120
28064
28013
28012
27994
27948
27905
27882
27848
27628
27600
27544
27628
27560
27492
27429
27370
27344
27312
27288
27296
27104
27058
27016
26960
26904
26904
26944
26912
26860
26800
26720
26724
26640
26586
26602
26460
26412
26348
26309
26324
26292
26330
26312
26216
26152
26120
26144
26144
26128
26100
25932
25890
25860
25820
25792
25708
25762
25788
25752
25688
25640
25656
25664
25548
25500
25452
25544
25448
25466
25466
25462
25424
25288
25264
25232
25220
25197
25162
25148
25108
25100
25064
25052
25001
24972
24928
24960
24991
24996
24964
24953
24906
24890
24852
24784
24772
24834
24865
24732
24712
24672
24664
24720
24680
24632
24668
24665
24656
24685
24522
24464
24444
24512
24526
24475
24416
24460
24480
24492
24382
24356
24328
24288
24260
24352
24344
24313
24264
24216
24220
24226
24220
24240
24130
24104
24012
24024
24096
24090
24019
24080
24108
23984
23956
23902
23854
23930
23952
23900
23864
23904
23900
23804
23776
23756
23747
23738
23713
23685
23664
23666
23664
23636
23600
23572
23554
23585
23544
23560
23485
23458
23416
23400
23343
23384
23258
23364
23225
23368
23252
23344
23280
23205
23196
23156
23140
23058
23152
23008
23112
23050
22994
22976
22892
22968
22950
22874
22880
22840
22848
22760
22782
22678
22820
22752
22704
22720
22640
22660
22612
22500
22673
22586
22564
22616
22512
22446
22429
22538
22464
22528
22472
22354
22410
22500
22456
22509
22568
22492
22480
22497
22509
22520
22548
22568
22640
22704
22874
22949
23021
23164
23316
23308
23368
23580
23720
23840
24032
24232
24272
24400
24568
24864
25076
25268
25482
25772
26052
26177
26400
26634
26961
27268
27600
27832
28089
28374
28705
29000
29314
29624
29930
30250
30584
30748
31072
31396
31730
32080
32458
32864
33240
33512
33860
34200
34562
34844
35160
35516
35792
36100
36472
36796
37136
37252
37562
37908
38256
38620
38960
39328
39700
40032
40340
40624
40832
41152
41460
41744
42026
42304
42360
42628
42912
43192
43432
43752
44008
44260
44496
44784
45051
45328
45624
45808
46048
46240
46464
46656
46848
47040
47176
47272
47472
47648
47832
47802
48088
48256
48432
48568
48760
48876
49024
49184
49337
49289
49368
49480
49584
49576
49800
49908
50017
50088
50156
50248
50292
50320
50384
50460
50472
50460
50472
50496
50568
50584
50584
50608
50592
50628
50612
50576
50576
50568
50576
50584
50560
50552
50516
50400
50264
50248
50204
50164
50144
50100
50040
50000
49860
49872
49866
49824
49780
49704
49644
49482
49352
49312
49248
49014
48988
48952
48976
48856
48808
48720
48600
48424
48328
48250
48156
48056
47800
47736
47680
47634
47570
47440
47320
47216
46992
46912
46844
46776
46680
46536
46388
46264
46120
46010
45904
45768
45656
45532
45400
45264
45140
45000
44884
44608
44456
44360
44224
44152
44060
43920
43760
43650
43504
43360
43202
43072
42938
42776
42650
42336
42204
42088
41944
41802
41664
41528
41402
41280
41152
41060
41024
40940
40804
40676
40520
40428
40292
40172
39888
39792
39704
39616
39560
39472
39456
39368
39236
39120
39040
38936
38840
38576
38488
38392
38320
38280
38272
38236
38180
38080
38056
38002
37916
37841
37792
37732
37504
37496
37508
37426
37324
37308
37320
37304
37268
37248
37268
37193
37160
37112
37085
37081
37080
37048
37034
36832
36832
36856
36964
37008
36917
36940
36930
36924
36928
36920
36921
36913
36720
36737
36760
36800
36820
36858
36920
36980
37020
37024
36980
36952
36960
37008
37012
37024
37032
37040
37052
37088
36888
36912
36994
37017
37034
37066
37132
37180
37204
37200
37225
37272
37297
37288
37292
37304
37280
37240
37260
37281
37265
37276
37328
37340
37360
37368
37176
37192
37272
37296
37368
37448
37420
37376
37317
37288
37340
37344
37352
37104
37104
37124
37204
37200
37208
37196
37184
37168
37216
37093
37184
37121
37168
37116
37108
37128
37084
36992
36928
36988
37020
36800
36916
36912
36906
36808
36740
36694
36689
36682
36648
36636
36372
36384
36416
36384
36408
36376
36340
36353
36329
36288
36240
36196
36136
36000
35936
35922
35900
35882
35840
35560
35524
35472
35428
35388
35376
35268
35284
35208
35144
35146
35098
35136
35096
35084
34940
34844
34836
34796
34506
34496
34492
34424
34352
34296
34272
34212
34172
34156
34164
34084
34056
33979
33852
33746
33756
33696
33652
33392
33400
33352
33412
33321
33196
33112
33040
32968
32922
32896
32840
32778
32722
32664
32620
32544
32500
32252
32193
32136
32096
32040
32008
32017
31988
31912
31792
31684
31664
31620
31594
31360
31316
31264
31256
31213
31188
31136
30992
30976
30936
30860
30808
30736
30676
30648
30408
30376
30376
30394
30274
30169
30148
30130
29932
29892
29924
29921
29800
29705
29644
29640
29584
29580
29360
29296
29243
29192
29136
29072
29032
29084
29020
28900
28912
28752
28692
28656
28608
28648
28620
28544
28424
28380
28370
28344
28164
28090
28056
28000
28018
28032
27978
27878
27808
27806
27792
27626
27580
27552
27588
27504
27448
27456
27280
27232
27176
27122
27088
27022
27072
27034
26932
26908
26912
26898
26864
26836
26652
26604
26560
26520
26460
26402
26392
26426
26308
26314
26304
26290
26264
26074
26048
26009
25960
25890
25908
25937
25908
25864
25804
25732
25684
25656
25610
25580
25577
25553
25509
25414
25336
25288
25369
25384
25256
25328
25168
25253
25104
25132
25080
25120
25032
25056
24956
24924
24872
24884
24860
24818
24780
24714
24720
24748
24784
24774
24748
24728
24714
24692
24656
24616
24545
24576
24440
24556
24458
24552
24400
24500
24464
24356
24388
24305
24444
24404
24308
24352
24312
24284
24344
24252
24228
24194
24168
24100
24144
24166
24184
24104
24157
24169
24172
24184
24068
24040
24036
24016
23984
23972
23964
23946
23930
23882
23826
23822
23816
23820
23906
23848
23828
23858
23860
23880
23770
23740
23712
23673
23632
23682
23712
23704
23690
23632
23588
23568
23540
23532
23568
23554
23536
23564
23466
23428
23408
23410
23384
23348
23324
23248
23252
23340
23318
23242
23240
23220
23216
23228
23224
23232
23220
23108
23076
23052
23024
22960
22920
22900
22896
22916
22944
22940
22898
22878
22820
22818
22842
22836
22746
22720
22680
22626
22592
22560
22578
22660
22608
22568
22589
22650
22514
22475
22432
22358
22372
22396
22368
22381
22370
22352
22328
22284
22240
22272
22296
22304
22202
22181
22152
22122
22088
22048
21992
21984
21958
21956
22016
22060
22038
22016
22000
22016
22053
22096
22148
22192
22136
22184
22209
22212
22208
22269
22440
22506
22560
22664
22770
22880
23010
23178
23228
23380
23522
23688
23864
24036
24225
24402
24600
24788
24976
25318
25545
25764
26000
26248
26520
26772
27098
27388
27680
27981
28304
28620
28786
29104
29416
29730
30042
30358
30680
31008
31340
31666
32001
32360
32706
33050
33364
33760
34048
34386
34672
34988
35329
35640
35944
36265
36572
36888
37230
37620
37952
38336
38650
39016
39352
39588
39880
40152
40476
40792
41097
41392
41512
41860
42168
42472
42784
43073
43336
43568
43812
44072
44336
44496
44672
44944
45172
45400
45616
45832
45821
46200
46410
46676
46768
47000
47128
47296
47444
47616
47736
47936
48040
48256
48312
48496
48378
48764
48616
48922
48872
49056
49144
49228
49344
49408
49546
49556
49704
49673
49796
49760
49865
49840
49896
49912
50000
49968
50034
50000
50032
50024
50076
50024
50136
50016
50080
49984
49968
50017
49736
49892
49872
49824
49920
49609
49720
49608
49584
49668
49304
49408
49408
49344
49276
49098
49096
49048
49032
48964
48912
48772
48624
48552
48468
48384
48296
48212
48128
48024
47930
47836
47584
47554
47474
47400
47316
47224
47128
47032
46936
46804
46672
46560
46416
46266
46128
46016
45904
45816
45700
45572
45442
45320
45162
45072
44936
44804
44656
44524
44384
44230
43940
43816
43708
43596
43536
43394
43224
43072
42953
42824
42688
42544
42216
42084
41948
41808
41680
41650
41536
41376
41224
41084
40960
40798
40665
40528
40372
40249
40114
39996
39696
39768
39441
39500
39204
39240
38980
39012
38824
38778
38680
38448
38472
38172
38220
37992
37876
37800
37724
37648
37586
37564
37572
37490
37380
37304
37230
37172
37092
37032
36969
36746
36832
36644
36736
36628
36640
36536
36560
36458
36496
36384
36428
36324
36369
36392
36148
36305
36112
36256
36224
36040
36174
36184
36008
36138
36136
35968
36176
36040
36172
36224
36018
36168
36068
36212
36228
36084
36232
36281
36068
36244
36144
36274
36179
36316
36216
36360
36305
36400
36448
36456
36512
36300
36504
36352
36586
36568
36608
36592
36656
36432
36636
36474
36632
36577
36712
36788
36552
36788
36600
36834
36616
36892
36664
36860
36752
36896
36852
36904
36914
36928
36916
36936
36952
36952
36920
36976
37034
36768
36986
36832
36968
36808
37048
36800
36928
36840
36904
36850
36876
36842
36912
36936
36920
36924
36704
36876
36704
36786
36618
36752
36652
36700
36628
36716
36668
36644
36640
36584
36536
36504
36472
36456
36440
36400
36392
36136
36224
36152
36170
36096
36128
36140
35864
35936
35882
35912
35936
35624
35720
35730
35482
35584
35472
35507
35522
35232
35322
35200
35224
35104
35096
35082
35092
35069
34732
34896
34712
34762
34762
34464
34633
34368
34418
34340
34360
34360
34058
34172
34033
34068
34064
33912
33888
33828
33578
33508
33460
33448
33385
33328
33266
33226
33240
33232
33112
32992
32952
32912
32872
32828
32792
32536
32500
32440
32396
32394
32412
32316
32168
32160
31916
31912
31840
31920
31816
31736
31704
31678
31640
31388
31344
31306
31252
31192
31120
31058
31000
30932
30885
30800
30736
30664
30592
30560
30492
30440
30373
30318
30268
30200
30144
30099
30044
29973
29917
29856
29788
29724
29658
29594
29538
29488
29424
29368
29332
29281
29354
29248
29160
29152
29104
29049
29040
28832
28768
28720
28716
28738
28652
28536
28524
28496
28482
28276
28232
28180
28132
28065
28082
28112
28016
27928
27868
27820
27769
27714
27668
27616
27568
27512
27544
27460
27488
27396
27232
27249
27144
27146
27072
27034
27000
26890
26988
26916
26804
26798
26800
26810
26624
26564
26512
26440
26400
26400
26402
26424
26368
26320
26298
26203
26154
26164
26168
26024
25984
25900
25984
25934
25852
25848
25846
25834
25692
25648
25608
25570
25539
25496
25544
25554
25488
25428
25396
25412
25408
25416
25260
25224
25130
25168
25216
25129
25156
25204
25041
25008
24928
25008
25004
25000
25040
24893
24824
24864
24890
24840
24884
24752
24680
24770
24724
24708
24748
24642
24576
24580
24672
24592
24636
24572
24521
24452
24580
24512
24604
24432
24438
24448
24424
24464
24468
24328
24256
24372
24300
24288
24320
24360
24228
24160
24228
24250
24184
24265
24152
24064
24162
24112
24084
24100
24101
24116
24116
23996
23988
23890
24028
23972
23928
23972
23901
23924
23852
23832
23746
23896
23824
23730
23802
23736
23684
23612
23578
23584
23568
23600
23576
23609
23597
23560
23505
23478
23456
23420
23413
23442
23464
23452
23324
23280
23260
23210
23144
23116
23129
23196
23176
23160
23120
23058
23064
23018
22987
23006
23016
23016
22892
22869
22844
22816
22780
22768
22752
22728
22704
22676
22640
22594
22513
22496
22536
22552
22552
22528
22484
22404
22457
22434
22440
22400
22376
22392
22380
22356
22336
22232
22208
22170
22082
22069
22146
22172
22152
22120
22190
22072
22016
22028
22108
22058
22104
22172
22114
22080
22084
22112
22128
22196
22305
22422
22428
22493
22568
22649
22740
22856
22952
23034
23169
23345
23424
23536
23698
23848
24024
24228
24404
24554
24794
24992
25211
25464
25768
26060
26256
26496
26785
27068
27364
27656
27816
28110
28400
28700
29002
29324
29704
30096
30360
30672
31026
31200
31562
31992
32376
32624
32936
33312
33452
33824
34192
34620
35016
35301
35568
35932
36272
36612
36738
37064
37456
37856
38265
38472
38818
39148
39240
39588
39928
40249
40648
40936
41152
41504
41536
41940
42304
42656
42928
43120
43338
43656
43900
43960
44317
44664
44892
45008
45288
45304
45636
45916
46184
46280
46475
46664
46880
46892
47144
47424
47626
47632
47840
48004
48048
48232
48448
48592
48704
48824
48864
48912
48960
49088
49184
49288
49364
49248
49452
49618
49746
49840
49876
49876
49848
49824
49856
49892
49920
49960
49884
50035
50114
50044
49952
49960
49944
49944
49956
49936
49712
49780
49848
49872
49884
49872
49800
49634
49578
49520
49488
49440
49240
49240
49234
49232
49208
49157
49072
48976
48788
48736
48664
48577
48484
48244
48168
48064
47988
47962
47884
47844
47768
47672
47592
47432
47276
47218
47112
46858
46800
46738
46648
46584
46469
46320
46144
46032
45936
45808
45688
45572
45450
45300
45140
45024
44928
44800
44664
44524
44392
44064
43880
43968
43824
43684
43530
43376
43256
43090
42962
42592
42680
42340
42348
42092
42088
41876
41793
41648
41304
41336
41060
41064
40944
40594
40600
40352
40346
40232
39888
39944
39772
39665
39536
39250
39272
39012
39050
38844
38800
38684
38388
38472
38168
38228
37940
37998
37768
37788
37624
37584
37524
37248
37321
37172
37136
37104
36816
36944
36828
36778
36516
36601
36368
36448
36241
36332
36176
36217
36148
36124
36096
35864
35968
35868
35908
35833
35840
35856
35802
35800
35558
35712
35528
35642
35532
35628
35576
35416
35548
35552
35392
35592
35416
35556
35600
35396
35528
35464
35576
35584
35640
35632
35624
35520
35488
35549
35570
35672
35680
35688
35674
35672
35656
35676
35698
35560
35800
35600
35844
35632
35864
35664
35885
35688
35936
35716
35888
35828
35944
35988
35824
35968
35916
36034
36060
36080
36080
35984
36114
36176
35936
36100
36112
36196
36218
36072
36138
36140
36132
36176
36208
36226
36024
36076
36128
36152
36138
36172
36196
36276
36209
36153
36000
36134
36054
36150
36184
35914
36040
36040
36096
36116
35837
35960
35948
35996
35984
35984
35992
35712
35840
35744
35780
35728
35784
35760
35588
35664
35588
35625
35620
35352
35496
35328
35381
35320
35364
35394
35104
35200
35112
35144
35044
35072
35096
34804
34930
34734
34785
34684
34666
34616
34642
34560
34560
34532
34473
34426
34360
34328
34272
34186
34032
34080
33996
34012
33900
33772
33776
33579
33480
33488
33434
33456
33484
33321
33268
33248
33218
32962
32904
32876
32812
32778
32732
32736
32728
32594
32484
32428
32400
32352
32297
32264
31996
31961
31936
31964
31952
31794
31716
31696
31640
31600
31544
31282
31220
31184
31128
31082
31120
31090
30948
30870
30842
30816
30776
30530
30472
30432
30392
30308
30256
30192
30132
30064
30096
30080
29940
29868
29876
29680
29624
29592
29556
29616
29476
29436
29408
29224
29176
29120
29062
29042
29048
29000
28890
28780
28740
28712
28629
28562
28544
28500
28464
28418
28238
28196
28124
28072
28036
28000
27992
27958
27828
27808
27768
27744
27556
27504
27468
27512
27444
27344
27322
27304
27300
27104
27036
27122
27010
27000
26856
26796
26764
26796
26676
26640
26640
26633
26560
26514
26450
26440
26272
26224
26146
26170
26180
26072
26025
26024
26008
25864
25790
25756
25786
25660
25714
25578
25520
25425
25452
25484
25432
25336
25350
25348
25332
25176
25104
25038
25060
25072
24968
24960
24946
24836
24788
24744
24720
24648
24608
24594
24577
24592
24588
24556
24512
24472
24434
24392
24356
24288
24225
24192
24149
24156
24128
24074
24048
24022
23992
23954
23952
23912
23912
23885
23850
23800
23746
23712
23680
23672
23672
23656
23576
23545
23512
23484
23466
23442
23412
23388
23324
23290
23264
23236
23240
23216
23188
23226
23248
23248
23206
23163
23133
23114
23139
23158
23156
23170
23160
23048
23032
23008
22992
22984
22948
22948
22924
22928
22869
22944
22848
22985
22904
22856
22840
22808
22808
22770
22796
22693
22832
22713
22864
22816
22762
22800
22736
22762
22810
22732
22708
22702
22612
22716
22628
22768
22646
22648
22578
22621
22674
22653
22612
22632
22664
22674
22684
22700
22596
22584
22528
22478
22448
22428
22440
22528
22478
22466
22520
22554
22456
22420
22369
22320
22416
22432
22368
22352
22386
22400
22390
22380
22382
22364
22280
22240
22201
22139
22128
22173
22220
22152
22200
22152
22018
22139
22064
22124
22058
21996
21956
21883
21996
21924
21933
21948
21955
21864
21802
21744
21720
21828
21770
21754
21776
21721
21668
21603
21536
21593
21604
21568
21528
21472
21444
21436
21400
21373
21344
21322
21304
21256
21244
21240
21184
21176
21136
21140
21132
21124
21036
20984
20958
20920
20904
20848
20820
20724
20842
20777
20768
20772
20765
20760
20641
20544
20513
20592
20567
20509
20504
20508
20522
20432
20366
20282
20372
20404
20348
20392
20412
20448
20400
20388
20300
20456
20522
20499
20577
20612
20660
20678
20688
20764
20852
20972
21076
21194
21306
21456
21633
21780
21984
22180
22417
22728
22908
23144
23362
23534
23781
24040
24338
24581
24908
25249
25488
25761
26114
26362
26754
27016
27448
27740
28192
28540
28760
29174
29482
29960
30336
30556
31048
31276
31744
32084
32540
32928
33160
33608
33952
34426
34824
34968
35520
35714
36242
36588
36984
37328
37584
38048
38420
38760
39104
39296
39744
40132
40475
40832
40940
41412
41728
42116
42416
42646
43032
43392
43488
43880
44152
44490
44800
44880
45228
45556
45820
45992
46272
46576
46844
47108
47252
47432
47656
47880
48080
48284
48472
48508
48800
49060
49276
49372
49412
49584
49744
49908
49848
50104
50280
50408
50520
50763
50898
50936
50936
50944
51016
51136
51170
51360
51464
51498
51488
51400
51410
51488
51514
51348
51560
51656
51752
51770
51608
51560
51576
51568
51392
51464
51520
51584
51616
51586
51528
51444
51344
51308
51256
51186
51052
50988
50930
50874
50808
50760
50521
50450
50472
50464
50456
50400
50258
50064
49976
49900
49816
49596
49568
49520
49480
49416
49260
49080
48970
48884
48792
48700
48472
48472
48392
48264
48112
47952
47856
47744
47626
47504
47240
47162
47040
46928
46816
46696
46556
46416
46272
46152
46012
45928
45816
45680
45508
45344
45232
45112
44946
44808
44672
44528
44380
44064
44072
43832
43808
43672
43384
43353
43176
42984
42905
42724
42528
42272
42280
42160
41846
41732
41588
41564
41468
41324
41168
41028
40904
40764
40444
40320
40202
40072
40056
39996
39832
39720
39594
39288
39184
39134
39116
39048
38914
38810
38712
38608
38352
38380
38328
38224
38144
37881
37796
37760
37754
37732
37620
37552
37496
37257
37304
37325
37245
37196
36992
37056
37056
36956
36920
36704
36684
36761
36778
36696
36640
36632
36600
36416
36472
36556
36480
36476
36468
36296
36400
36457
36364
36388
36208
36196
36236
36324
36396
36328
36344
36344
36168
36228
36236
36256
36304
36328
36312
36384
36428
36468
36464
36424
36458
36476
36300
36420
36528
36540
36496
36544
36376
36448
36572
36656
36640
36593
36640
36680
36492
36544
36612
36664
36792
36744
36736
36776
36584
36624
36684
36757
36864
36872
36792
36832
36864
36668
36728
36744
36778
36776
36818
36960
36876
36848
36872
36888
36682
36776
36882
36920
36864
36797
36808
36828
36836
36600
36624
36688
36704
36810
36776
36670
36704
36676
36680
36400
36404
36484
36476
36472
36424
36384
36416
36416
36418
36420
36392
36366
36324
36288
36184
36120
36084
35932
35976
35832
35896
35816
35802
35741
35792
35788
35516
35593
35590
35560
35584
35497
35464
35164
35242
35200
35210
35202
34988
35026
35016
34732
34788
34728
34760
34752
34456
34512
34424
34448
34464
34160
34200
34184
34182
34148
33901
33968
33956
33688
33738
33730
33467
33516
33484
33434
33408
33164
33138
33104
33088
33057
33024
32994
32936
32816
32676
32642
32604
32562
32306
32260
32220
32292
32216
32165
32066
31940
31856
31844
31820
31572
31520
31480
31416
31354
31320
31356
31192
31104
31088
31058
30808
30754
30704
30652
30580
30584
30570
30492
30464
30226
30298
30122
30138
30048
30048
29964
29920
29856
29648
29644
29520
29540
29496
29316
29350
29202
29240
29186
29009
29028
28896
28960
28880
28708
28708
28584
28620
28552
28388
28364
28280
28320
28276
28086
28088
27996
27908
27912
27776
27880
27786
27628
27676
27634
27456
27436
27420
27402
27226
27156
27072
27105
27100
26964
26984
26980
26792
26744
26696
26608
26572
26588
26596
26531
26428
26386
26394
26242
26186
26114
26041
26064
26080
26019
25960
25939
25888
25916
25810
25820
25712
25730
25636
25512
25544
25560
25432
25428
25248
25290
25140
25192
25052
25153
25104
24976
24984
24874
24976
24885
24940
24832
24712
24740
24641
24620
24584
24456
24574
24528
24419
24434
24448
24294
24210
24284
24256
24172
24202
24178
24164
24162
24140
23994
23936
23864
23825
23912
23828
23796
23780
23738
23762
23764
23745
23616
23572
23516
23464
23472
23531
23435
23472
23492
23386
23328
23236
23228
23232
23273
23237
23168
23128
23164
23168
23194
23046
23000
23069
22998
23041
23090
22960
22881
22832
22828
22912
22872
22820
22792
22842
22696
22812
22656
22796
22706
22820
22716
22640
22704
22632
22640
22594
22504
22697
22610
22531
22544
22456
22620
22516
22425
22518
22488
22450
22429
22352
22508
22432
22436
22428
22376
22433
22340
22496
22364
22264
22448
22368
22252
22408
22364
22260
22336
22272
22404
22322
22289
22300
22264
22272
22232
22269
22192
22298
22164
22276
22152
22220
22162
22228
22100
22228
22216
22208
22224
22160
22184
22112
22180
22072
22196
22122
22180
22040
22146
21984
22132
21984
22121
22080
22024
22000
21960
21996
21874
22025
21925
22032
21972
21924
21914
21836
21920
21768
21920
21780
21904
21800
21850
21674
21768
21609
21748
21612
21722
21658
21728
21644
21548
21569
21460
21620
21536
21386
21540
21485
21380
21384
21264
21432
21324
21226
21289
21249
21216
21108
21082
21168
21148
21077
21128
21084
21064
21040
21016
21000
20985
20844
20750
20722
20803
20768
20698
20712
20720
20714
20696
20574
20544
20497
20478
20432
20320
20291
20272
20316
20308
20284
20240
20176
20121
20138
20138
20058
19965
19872
19874
19868
19856
19880
19860
19796
19796
19786
19781
19668
19628
19609
19641
19600
19554
19544
19514
19424
19400
19344
19242
19225
19288
19325
19308
19316
19292
19276
19248
19292
19322
19346
19296
19240
19232
19376
19464
19489
19552
19648
19764
19834
19914
19968
20112
20312
20496
20648
20780
21002
21163
21330
21475
21770
22064
22284
22568
22872
23176
23380
23614
23946
24370
24660
25044
25320
25644
25960
26332
26792
27178
27516
27876
28288
28688
29096
29490
29906
30160
30557
30956
31397
31916
32320
32682
33072
33480
33890
34112
34528
34956
35432
35892
36232
36580
37005
37404
37784
38164
38500
38688
39264
39560
40024
40404
40544
41044
41328
41772
42120
42224
42752
42972
43352
43608
43984
44272
44600
44920
45228
45584
45816
46120
46340
46648
46720
47080
47280
47528
47776
48024
48224
48424
48656
48664
49088
49396
49440
49600
49808
49892
50168
50396
50560
50728
50840
50800
50996
51032
51282
51256
51580
51264
51552
51708
51720
51968
51768
51896
52040
52008
52284
52320
52260
52176
52192
52248
52128
52338
52481
52360
52248
52252
52256
52144
52192
52256
52360
52344
52224
52065
51992
51968
51928
51896
51820
51850
51868
51824
51744
51584
51392
51320
51240
51016
51008
50944
50868
50778
50680
50600
50536
50472
50361
50316
50184
49956
49867
49760
49512
49464
49360
49332
49240
49034
48868
48776
48664
48548
48304
48240
48192
48088
47944
47784
47616
47500
47400
47282
47072
46956
46817
46682
46544
46274
46192
46112
45994
45800
45685
45536
45392
45090
44984
44904
44786
44632
44488
44180
44048
43969
43856
43660
43556
43384
43220
43072
42728
42608
42460
42304
42148
41986
42008
41868
41722
41400
41256
41108
40960
40836
40790
40692
40520
40412
40256
40128
39832
39688
39576
39512
39442
39328
39256
39160
39036
38892
38772
38656
38544
38432
38155
38058
37973
37952
37928
37866
37776
37680
37592
37508
37409
37340
37264
37024
36952
36892
36816
36776
36816
36824
36760
36672
36636
36584
36368
36336
36480
36408
36371
36188
36160
36232
36308
36216
36226
36024
36020
36040
36096
36068
36076
36104
36058
35988
36064
36068
35928
36064
36096
35899
36040
35976
36088
36124
35952
36112
36048
36122
36170
35972
36140
36024
36180
36128
36214
36205
36196
36076
36268
36192
36336
36412
36188
36336
36280
36428
36456
36252
36436
36472
36524
36516
36426
36564
36596
36464
36608
36664
36440
36612
36556
36680
36674
36732
36688
36648
36740
36800
36544
36784
36596
36692
36624
36708
36680
36758
36808
36568
36844
36780
36810
36800
36813
36768
36808
36764
36800
36736
36760
36480
36668
36561
36640
36664
36432
36624
36424
36474
36520
36548
36480
36348
36384
36332
36384
36344
36344
36354
36052
36199
36080
36080
36004
36008
35944
35988
35968
35936
35936
35656
35820
35594
35632
35608
35634
35540
35424
35440
35344
35352
35280
35260
35244
35144
35144
35056
35008
34704
34848
34608
34792
34496
34580
34473
34512
34456
34408
34376
34112
34128
34020
34072
34040
33924
33840
33618
33616
33572
33520
33505
33496
33464
33312
33196
33192
33156
32890
32880
32848
32880
32700
32673
32648
32388
32360
32373
32368
32256
32129
32126
31884
31872
31840
31889
31787
31632
31627
31424
31392
31448
31332
31208
31196
30960
30940
30898
30913
30856
30720
30640
30518
30500
30388
30428
30408
30185
30198
30060
30132
29992
29812
29866
29804
29600
29608
29488
29532
29396
29440
29336
29164
29194
29152
28964
28956
28836
28896
28832
28617
28592
28488
28554
28446
28296
28300
28280
28098
28121
28072
27912
27892
27772
27860
27760
27617
27584
27552
27490
27426
27418
27387
27173
27106
27044
26960
27040
26949
26841
26828
26792
26744
26728
26536
26516
26414
26480
26404
26256
26236
26121
26120
25992
26066
25988
25840
25812
25680
25728
25618
25708
25592
25452
25440
25312
25384
25260
25204
25168
25059
25082
24932
25020
24928
24928
24722
24744
24649
24680
24676
24480
24520
24370
24384
24340
24326
24317
24157
24168
24104
23976
23994
23948
23960
23960
23744
23760
23716
23741
23700
23517
23580
23456
23488
23416
23400
23350
23292
23232
23209
23145
23144
23197
23084
23106
23003
22944
22920
22842
22856
22784
22654
22690
22689
22592
22617
22500
22549
22592
22364
22416
22376
22330
22288
22256
22200
22196
22176
22146
22160
22082
22108
22128
21916
21988
22069
21858
21912
21872
21856
21856
21696
21748
21712
21704
21665
21662
21611
21626
21602
21620
21582
21588
21584
21416
21480
21448
21480
21536
21432
21478
21384
21440
21368
21314
21289
21260
21272
21220
21232
21188
21243
21116
21224
21200
21188
21154
21124
21098
21057
21010
21040
21043
21068
21131
21092
21076
21052
21032
21008
20996
20964
20944
20976
20946
20880
20838
20800
20777
20802
20818
20865
20860
20850
20907
20832
20820
20797
20812
20856
20748
20816
20692
20784
20703
20768
20612
20677
20692
20654
20690
20528
20602
20616
20601
20660
20594
20552
20572
20532
20553
20580
20448
20532
20368
20480
20316
20342
20380
20376
20356
20344
20324
20320
20290
20268
20266
20212
20212
20274
20228
20182
20196
20092
20153
20132
19984
20082
20092
19928
19989
19956
19912
19930
19812
19864
19912
19821
19851
19774
19816
19684
19764
19640
19689
19562
19616
19600
19602
19606
19484
19509
19328
19468
19334
19444
19353
19273
19320
19284
19232
19202
19093
19225
19156
19060
19090
18940
19066
18993
19020
18957
18868
18832
18740
18820
18754
18818
18752
18646
18689
18572
18648
18588
18550
18453
18539
18539
18499
18492
18492
18504
18514
18446
18372
18360
18456
18528
18496
18560
18624
18662
18698
18760
18838
18920
19008
19076
19196
19293
19408
19548
19707
19858
20028
20210
20324
20606
20726
21078
21307
21492
21820
22016
22360
22664
22867
23316
23581
23900
24264
24526
24958
25316
25628
26016
26320
26788
27104
27610
27992
28266
28770
29168
29484
30008
30280
30800
31184
31480
31996
32282
32820
33232
33475
34016
34420
34672
35192
35628
36004
36428
36576
37116
37416
37912
38320
38464
38988
39376
39544
40041
40352
40800
41184
41312
41824
42208
42361
42824
43172
43276
43748
44082
44380
44724
44752
45184
45488
45780
45992
46276
46544
46824
46976
47256
47528
47664
47932
48242
48240
48500
48736
48904
49220
49288
49600
49632
49928
49784
50068
50114
50408
50480
50745
50704
50968
50912
51144
51072
51160
51456
51360
51544
51424
51552
51584
51612
51872
51752
51752
51860
51808
52032
51832
52019
51832
51824
51968
51840
52034
51816
51816
51592
51604
51712
51748
51762
51784
51712
51640
51484
51432
51280
51200
51128
51044
51122
50944
50984
50712
50660
50720
50512
50408
50376
50216
50220
49976
49880
49880
49528
49556
49424
49312
49220
48936
48929
48876
48794
48696
48556
48392
48280
48138
48008
47828
47696
47482
47336
47212
47040
46952
46826
46672
46524
46224
46176
46000
45916
45760
45620
45476
45184
45122
44968
44660
44616
44432
44328
44164
43792
43832
43496
43442
43170
43144
42976
42810
42632
42328
42306
42080
41964
41772
41504
41448
41304
40952
40936
40714
40408
40444
40096
40120
39760
39628
39496
39360
39284
39192
39024
38888
38720
38584
38276
38144
37992
37858
37740
37668
37616
37498
37204
37236
37088
36858
36896
36664
36680
36624
36320
36384
36336
36042
36112
36044
35784
35872
35712
35560
35632
35572
35336
35432
35400
35184
35268
35248
35040
35152
34985
35096
35036
35016
34988
34819
34784
34856
34920
34868
34852
34848
34684
34676
34680
34680
34732
34872
34820
34848
34852
34880
34721
34744
34768
34904
34964
34932
34976
34996
35036
35044
34900
34928
34944
34976
35010
35069
35085
35132
35186
35226
35364
35440
35488
35552
35572
35592
35552
35608
35460
35548
35672
35768
35812
35764
35824
35888
35736
35816
35884
36016
36080
36032
36100
36128
36168
35968
36016
36072
36132
36276
36245
36284
36328
36160
36240
36336
36432
36376
36400
36216
36332
36433
36468
36416
36466
36249
36312
36361
36424
36500
36480
36376
36424
36216
36298
36328
36416
36468
36408
36324
36368
36136
36152
36200
36216
36210
36234
36218
36112
36064
36112
36128
35816
36040
35812
35880
35832
35906
35882
35636
35728
35632
35684
35712
35408
35552
35408
35466
35483
35168
35248
35168
35216
35192
35006
35049
35040
34840
34888
34865
34848
34752
34600
34632
34604
34304
34392
34308
34336
34251
34112
34128
34120
33856
33938
33888
33856
33768
33592
33648
33572
33453
33307
33376
33340
33072
33124
32990
32988
32864
32890
32840
32786
32740
32452
32490
32440
32420
32304
32288
32232
32176
32080
31844
31864
31776
31784
31706
31648
31608
31337
31376
31216
31216
31104
31146
31096
30904
30936
30852
30842
30756
30562
30602
30560
30328
30372
30346
30136
30176
30148
29924
29964
29848
29842
29772
29697
29640
29458
29449
29336
29426
29314
29120
29114
28984
29025
28920
28924
28802
28810
28722
28513
28528
28412
28404
28264
28332
28256
28252
28168
28136
28040
28028
27884
27746
27720
27620
27600
27493
27470
27361
27348
27236
27321
27256
27090
27080
26986
27016
26922
26958
26840
26844
26768
26757
26622
26488
26488
26360
26376
26252
26256
26132
26201
26080
26144
25962
26058
25992
25860
25834
25728
25792
25708
25632
25597
25482
25596
25512
25385
25364
25272
25284
25160
25258
25181
25096
25068
24968
25024
24936
24900
24892
24784
24880
24808
24690
24681
24618
24580
24552
24521
24472
24440
24432
24416
24392
24369
24364
24336
24320
24274
24258
24224
24216
24164
24136
24108
23972
23962
23922
23882
23866
23824
23816
23793
23740
23718
23712
23654
23608
23586
23636
23668
23608
23564
23594
23612
23508
23456
23376
23344
23314
23373
23406
23328
23324
23344
23362
23344
23345
23320
23274
23248
23244
23232
23234
23208
23192
23144
23109
23112
23130
23004
22979
22942
22912
22850
22824
22840
22841
22921
22884
22857
22802
22792
22812
22840
22728
22673
22616
22580
22628
22680
22608
22612
22618
22616
22664
22568
22650
22616
22592
22572
22368
22459
22317
22436
22296
22414
22272
22330
22309
22250
22248
22166
22284
22234
22184
22164
22104
22112
21996
22120
22018
22124
22034
21960
21923
21816
21960
21880
21858
21824
21802
21777
21680
21784
21635
21764
21656
21741
21648
21708
21596
21496
21523
21376
21512
21380
21508
21424
21368
21356
21306
21288
21218
21225
21126
21264
21200
21066
21192
21136
21056
21032
20932
21008
20852
20971
20872
20901
20900
20824
20842
20712
20862
20772
20784
20748
20628
20800
20763
20672
20740
20648
20744
20744
20688
20796
20810
20772
20834
20772
20994
20994
20954
21144
21204
21268
21340
21360
21581
21664
21696
22008
22097
22192
22412
22486
22834
22960
23168
23362
23540
23880
24138
24314
24624
24840
25148
25429
25645
26112
26377
26592
26974
27248
27558
27924
28204
28608
28892
29320
29600
30060
30417
30812
31176
31378
31894
32088
32556
32832
33308
33728
33858
34340
34648
35113
35484
35696
36161
36568
36724
37228
37600
37812
38272
38672
38764
39192
39616
39996
40304
40588
40856
41153
41472
41824
42124
42420
42720
43024
43320
43392
43712
43977
44288
44544
44800
45098
45300
45624
45880
46136
46346
46584
46778
46984
47208
47424
47564
47784
47922
48120
48284
48560
48616
48904
48932
49200
49034
49280
49512
49536
49720
49738
49928
49920
50200
50136
50304
50144
50416
50232
50476
50456
50584
50460
50840
50680
50860
50728
50920
50760
50946
50776
50912
50616
50724
50724
50680
50784
50656
50760
50576
50544
50640
50488
50610
50272
50322
50416
50220
50242
50000
49976
49896
49808
49800
49640
49696
49496
49492
49298
49300
49120
49040
48864
48752
48672
48536
48428
48312
48192
48064
47962
47818
47672
47608
47538
47370
47232
47032
46968
46864
46616
46560
46360
46296
46176
45824
45808
45652
45560
45408
45104
45088
44836
44768
44616
44276
44274
44073
43976
43824
43480
43458
43186
43164
42848
42706
42608
42473
42272
42077
41938
41744
41408
41248
41072
40920
40733
40604
40456
40306
40160
39984
39832
39656
39306
39296
38976
38960
38642
38612
38272
38272
37952
37956
37665
37624
37412
37320
37184
37036
36898
36584
36628
36312
36345
36032
36064
35768
35788
35514
35544
35412
35152
35204
34964
34968
34912
34632
34688
34600
34368
34424
34368
34108
34176
34040
34040
33840
33844
33888
33776
33728
33526
33488
33544
33588
33508
33480
33320
33300
33444
33420
33376
33362
33220
33218
33332
33356
33312
33328
33188
33266
33372
33344
33352
33376
33404
33272
33308
33356
33436
33520
33592
33632
33642
33624
33648
33706
33764
33636
33698
33848
33928
33900
33972
34012
34080
33956
34032
34226
34240
34264
34328
34204
34296
34408
34552
34496
34576
34448
34524
34592
34760
34744
34752
34832
34692
34744
34845
34960
35058
35072
35068
35094
35104
35116
35164
35200
35232
35252
35065
35102
35200
35274
35402
35392
35320
35332
35396
35424
35456
35492
35456
35508
35256
35472
35332
35392
35384
35432
35508
35264
35360
35328
35424
35440
35176
35320
35280
35352
35380
35130
35280
35192
35264
35276
35016
35214
34954
35160
34880
35072
34866
35000
34748
34900
34752
34777
34766
34784
34744
34704
34712
34656
34592
34345
34432
34344
34368
34388
34098
34200
34064
34108
34000
34001
33986
33724
33892
33656
33746
33696
33680
33588
33400
33421
33340
33360
33306
33088
33100
33044
33048
32954
32761
32811
32792
32536
32562
32456
32492
32420
32186
32297
32120
32096
32016
32032
31984
31726
31736
31684
31652
31594
31536
31402
31248
31242
31196
31178
31120
30916
30952
30916
30716
30760
30716
30496
30528
30432
30232
30264
30132
30176
30122
30084
30000
29776
29808
29652
29672
29552
29586
29540
29308
29386
29172
29194
29048
29016
28896
28864
28761
28731
28605
28644
28478
28509
28388
28392
28220
28224
28096
28092
27968
27954
27844
27840
27700
27728
27576
27616
27440
27480
27308
27352
27185
27228
27068
27104
27060
26984
26824
26832
26704
26740
26608
26664
26568
26420
26364
26258
26306
26206
26234
26156
26008
26032
25890
25880
25778
25754
25645
25718
25578
25637
25548
25396
25428
25332
25394
25272
25160
25120
25028
24990
24888
24944
24774
24808
24708
24724
24600
24680
24528
24612
24512
24432
24388
24317
24289
24216
24238
24142
24120
24021
24002
23936
23970
23840
23940
23874
23900
23714
23756
23612
23684
23564
23542
23484
23386
23480
23394
23276
23336
23296
23228
23184
23069
23218
23108
22968
23104
23020
22976
22938
22890
22904
22780
22886
22817
22753
22720
22664
22636
22552
22625
22476
22596
22492
22612
22524
22411
22425
22362
22412
22272
22400
22336
22268
22245
22124
22265
22210
22128
22180
22032
22150
22026
22153
22080
22020
22008
21898
22000
21844
21958
21826
21952
21904
21810
21844
21785
21780
21770
21712
21712
21596
21720
21643
21736
21680
21632
21586
21560
21592
21549
21474
21538
21380
21536
21496
21404
21450
21404
21369
21372
21309
21344
21320
21208
21312
21260
21148
21288
21201
21301
21216
21172
21134
21052
21144
21082
21068
21036
20920
21066
21012
20969
20984
20896
21018
20932
20972
20880
20946
20866
20810
20784
20644
20836
20701
20648
20696
20668
20610
20625
20512
20620
20529
20568
20536
20480
20528
20514
20452
20448
20320
20496
20376
20260
20404
20348
20256
20328
20301
20258
20281
20296
20228
20200
20108
20144
20194
20168
20136
20179
20137
20114
20048
19986
20112
20101
20084
20005
20178
20164
20072
20240
20266
20174
20380
20416
20361
20584
20640
20650
20808
20812
21068
21140
21236
21378
21441
21760
21892
22082
22264
22380
22746
22960
23176
23422
23744
24052
24210
24456
24764
25152
25452
25760
26152
26524
26728
27060
27404
27832
28264
28648
28968
29360
29800
30048
30444
30940
31344
31672
32092
32504
32728
33120
33528
33946
34380
34805
35138
35616
36048
36408
36832
36968
37504
37828
38322
38730
39072
39452
39644
40130
40508
40892
41276
41596
41984
42280
42672
42962
43352
43630
43980
44044
44522
44808
45148
45488
45778
46136
46248
46616
46960
47072
47396
47736
47900
48136
48328
48636
48832
49184
49192
49468
49712
49792
50075
50352
50592
50784
50928
50944
51048
51232
51240
51513
51675
51928
52056
52000
52048
52200
52296
52360
52624
52738
52592
52664
52752
52832
53036
53064
52985
52888
52956
52880
53090
53168
53192
53240
53170
53040
52960
52956
52968
52952
52956
52704
52832
52840
52893
52808
52736
52696
52644
52656
52632
52586
52480
52368
52152
52064
51984
51912
51844
51620
51584
51608
51584
51504
51248
51160
50892
50964
50976
50712
50620
50360
50377
50384
50272
50060
49896
49784
49680
49496
49450
49376
49258
49088
48864
48764
48644
48352
48272
48136
48016
47904
47744
47624
47528
47436
47224
47068
46960
46828
46681
46392
46288
46152
46058
45928
45756
45568
45440
45296
44992
44916
44816
44656
44496
44348
44020
43912
43832
43700
43520
43392
43224
43028
42726
42700
42504
42392
42240
41904
41898
41600
41600
41344
41296
41152
40828
40842
40544
40578
40379
40272
40164
39832
39876
39728
39594
39488
39170
39236
38936
38960
38712
38749
38596
38532
38468
38152
38258
37984
38048
37872
37864
37776
37536
37632
37488
37304
37400
37192
37264
37228
36964
37072
37056
36836
36928
36874
36784
36820
36752
36652
36710
36664
36501
36604
36584
36396
36392
36472
36544
36512
36456
36472
36288
36300
36336
36456
36504
36476
36481
36488
36304
36368
36528
36560
36512
36520
36544
36384
36456
36508
36600
36677
36632
36688
36712
36545
36588
36636
36746
36892
36844
36840
36906
36736
36782
36929
37036
36960
37032
36852
36884
37000
37088
37212
37200
37184
37188
37256
37256
37248
37248
37272
37296
37320
37362
37376
37384
37408
37473
37216
37425
37296
37416
37360
37440
37396
37475
37416
37516
37448
37532
37514
37532
37580
37316
37476
37306
37440
37404
37490
37440
37362
37444
37440
37280
37352
37304
37384
37332
37348
37396
37104
37220
37152
37228
37220
37025
37132
37168
36920
37034
37056
36792
36860
36944
36944
36882
36792
36704
36716
36674
36618
36580
36532
36500
36235
36236
36222
36330
36225
35976
36032
36121
36016
35944
35928
35664
35688
35800
35666
35608
35584
35336
35356
35316
35332
35328
35160
35136
35096
34824
34798
34788
34824
34816
34680
34576
34496
34464
34412
34148
34090
34080
34048
33960
33976
33968
33800
33736
33712
33456
33464
33496
33472
33336
33248
33204
33160
32922
32908
32874
32898
32848
32696
32648
32604
32352
32332
32376
32320
32170
32140
32096
31860
31804
31784
31762
31706
31708
31552
31516
31472
31241
31200
31256
31200
31056
30984
30936
30856
30818
30776
30536
30496
30448
30450
30412
30296
30273
30217
30010
29944
29904
29968
29852
29728
29724
29688
29462
29568
29332
29274
29216
29166
29220
29176
29040
29008
29008
28786
28808
28760
28698
28536
28472
28392
28410
28396
28304
28304
28096
28040
28006
28065
27933
27897
27908
27720
27657
27578
27624
27608
27548
27414
27408
27268
27220
27152
27121
27144
27108
27000
26930
26946
26810
26760
26697
26649
26584
26640
26612
26524
26450
26464
26314
26256
26208
26248
26201
26068
25988
26032
26018
25922
25920
25893
25856
25842
25824
25782
25746
25571
25532
25484
25428
25356
25344
25384
25369
25272
25288
25277
25262
25248
25082
25044
24980
24936
24968
25001
24942
24890
24936
24825
24756
24705
24786
24698
24736
24635
24556
24603
24568
24600
24522
24440
24482
24464
24483
24396
24360
24282
24352
24316
24320
24369
24236
24187
24128
24176
24210
24144
24192
24128
24064
24014
24112
24058
24056
24100
24002
23939
23979
23936
23968
23994
23904
23840
23798
23888
23848
23852
23904
23799
23706
23786
23808
23769
23824
23736
23700
23670
23605
23596
23694
23632
23608
23672
23576
23506
23548
23532
23568
23612
23464
23428
23508
23436
23515
23400
23354
23404
23388
23458
23290
23292
23284
23332
23240
23152
23184
23208
23188
23272
23128
23018
23120
23076
23160
23038
22944
23024
23034
23073
22940
22860
22861
22907
22837
22876
22832
22760
22704
22809
22768
22704
22752
22784
22664
22586
22538
22632
22548
22560
22592
22498
22480
22424
22336
22400
22424
22354
22314
22322
22330
22344
22220
22296
22220
22208
22178
22116
22162
22121
22026
22112
22064
22020
22032
22000
21946
22002
22034
21912
21834
21896
21928
21872
21973
21810
21824
21864
21874
21912
21848
21829
21788
21768
21872
21902
21885
21964
22032
22000
21997
22000
22134
22252
22332
22450
22560
22652
22744
22704
22992
23068
23132
23370
23496
23660
23872
23960
24320
24491
24704
24940
25128
25552
25728
25976
26300
26512
26784
27050
27433
27794
28044
28420
28670
28984
29316
29644
30076
30496
30844
31176
31484
31884
32104
32490
33012
33321
33704
33900
34337
34856
35128
35552
35776
36256
36656
36932
37352
37728
37929
38368
38824
39142
39504
39696
40192
40540
40882
40984
41432
41840
42208
42460
42832
42920
43388
43785
44062
44372
44680
44872
45200
45540
45880
46017
46328
46602
46728
47060
47424
47592
47768
48026
48164
48488
48776
48952
49032
49258
49344
49744
49968
49928
50144
50240
50576
50784
50696
50836
50768
51186
51432
51300
51416
51352
51648
51906
52016
51920
51944
52017
52112
52048
52320
52456
52508
52328
52400
52424
52664
52448
52464
52484
52432
52668
52712
52530
52440
52480
52464
52306
52480
52560
52512
52296
52244
52240
51952
52096
52032
52042
52040
51992
51984
51924
51740
51572
51512
51448
51256
51264
51329
51280
51048
50912
50824
50584
50608
50632
50554
50272
50192
50098
49888
49856
49816
49760
49512
49408
49305
49192
49064
48970
48731
48728
48664
48464
48292
48192
48060
47936
47674
47570
47464
47338
47240
47152
47024
46834
46728
46592
46370
46304
46208
45992
45898
45588
45512
45464
45258
45160
44840
44768
44690
44536
44392
44256
44112
43968
43812
43668
43520
43216
43082
42988
42864
42784
42602
42424
42304
42154
41840
41746
41712
41552
41432
41292
40996
40856
40752
40716
40644
40480
40368
40240
40114
39992
39680
39568
39440
39352
39232
39124
39040
39000
38984
38858
38748
38656
38584
38480
38402
38144
38060
38104
38096
38018
37896
37840
37776
37696
37428
37392
37356
37440
37432
37336
37312
37252
37222
37188
36976
36976
37072
37074
36996
36980
36960
36924
36732
36736
36760
36832
36864
36856
36840
36776
36776
36784
36792
36632
36616
36640
36668
36696
36820
36860
36810
36832
36644
36768
36858
36904
36874
36870
36864
36912
36928
36962
36808
36884
37064
37006
37042
37080
36944
37064
37128
37072
37136
37170
36978
37060
37176
37256
37224
37216
37276
37098
37184
37244
37356
37384
37412
37376
37356
37348
37352
37400
37412
37276
37220
37237
37264
37260
37288
37336
37448
37490
37384
37440
37208
37288
37336
37428
37476
37360
37356
37392
37384
37184
37228
37260
37360
37332
37220
37256
37248
37018
37088
37120
37204
37172
37068
37116
36882
36956
37052
36922
36936
36666
36674
36728
36706
36802
36760
36632
36656
36628
36604
36336
36392
36393
36424
36428
36320
36232
36216
36188
35912
35872
35840
35878
35962
35904
35761
35736
35712
35680
35640
35376
35388
35364
35388
35360
35192
35186
35136
35092
34834
34888
34812
34844
34750
34584
34616
34608
34345
34390
34432
34176
34218
34220
33948
34048
33862
33821
33824
33826
33652
33624
33588
33316
33280
33236
33244
33256
33086
33080
32842
32816
32840
32852
32732
32688
32464
32428
32508
32352
32316
32080
32064
32107
32020
31920
31908
31688
31652
31736
31584
31564
31338
31288
31258
31298
31242
31094
31096
30858
30800
30752
30688
30698
30682
30544
30506
30472
30258
30212
30248
30176
30108
30090
29884
29824
29822
29833
29688
29632
29616
29414
29336
29408
29280
29252
29234
29028
28968
29042
28960
28888
28870
28680
28624
28608
28624
28524
28448
28394
28368
28352
28136
28048
28090
28080
27969
27890
27837
27816
27800
27746
27568
27540
27465
27400
27340
27336
27322
27308
27232
27144
27074
27056
27052
26881
26832
26784
26736
26690
26640
26561
26528
26528
26504
26512
26402
26392
26384
26216
26113
26098
26164
26045
26068
25932
25844
25912
25878
25900
25752
25692
25609
25680
25652
25568
25616
25442
25376
25430
25368
25329
25336
25214
25168
25069
25152
25106
25064
25098
24996
24914
24844
24833
24800
24808
24832
24816
24754
24674
24656
24704
24698
24544
24468
24412
24400
24458
24480
24385
24416
24456
24294
24244
24340
24232
24316
24180
24090
24196
24152
24200
24064
23979
24043
24034
23992
24032
24064
23924
23872
23844
23930
23868
23920
23824
23760
23738
23808
23728
23720
23700
23640
23572
23660
23624
23659
23584
23504
23512
23584
23552
23492
23529
23546
23460
23412
23338
23392
23408
23331
23386
23412
23288
23224
23216
23250
23250
23218
23160
23145
23178
23176
23184
23184
23170
23128
23108
23028
22984
23000
22939
22816
22813
22842
22828
22820
22814
22796
22780
22848
22812
22820
22792
22676
22752
22634
22585
22520
22450
22424
22403
22520
22360
22472
22342
22468
22364
22432
22360
22416
22328
22288
22281
22228
22224
22170
22144
22040
22168
22120
22032
22012
21972
21976
21936
21944
21864
21925
21794
21920
21808
21925
21842
21811
21764
21692
21640
21728
21688
21650
21656
21652
21598
21576
21520
21416
21428
21476
21504
21485
21432
21464
21484
21428
21382
21298
21276
21384
21344
21364
21416
21320
21248
21384
21365
21420
21480
21544
21508
21524
21504
21560
21681
21800
21900
21953
22028
22162
22320
22308
22394
22584
22770
22936
23072
23232
23450
23680
23837
24005
24176
24476
24768
24974
25248
25560
25728
25940
26272
26624
26864
27188
27520
27868
28032
28342
28744
29152
29420
29780
30160
30344
30688
31044
31496
31894
32217
32544
32864
33184
33568
33940
34084
34464
34860
35330
35656
35968
36290
36684
36824
37248
37624
38060
38424
38672
38988
39324
39648
39816
40232
40624
40865
41162
41480
41600
41960
42368
42604
42896
42954
43344
43650
43960
44268
44400
44696
44932
45032
45323
45620
45840
45992
46232
46368
46672
46832
46944
47152
47360
47536
47712
47872
48008
48144
48242
48408
48640
48512
48736
48864
48952
49186
49196
49240
49432
49472
49496
49440
49736
49904
49780
49860
49820
50088
49952
50000
49952
50152
50200
50068
50096
49944
50098
50226
50186
50088
50064
50080
50048
50152
50128
49952
49944
49706
49856
49904
49904
49720
49640
49592
49384
49472
49524
49328
49268
49216
49088
49072
49088
48932
48800
48736
48656
48572
48384
48409
48352
48160
48064
47976
47696
47664
47632
47538
47468
47368
47272
47168
46996
46848
46736
46640
46552
46432
46308
46192
45936
45898
45816
45632
